1.718750
1.718750
0.265625
0.000000
0.000000
0.000000
0.000000
0.000000
0.000000
0.000000
0.000000
0.000000
0.000000
0.000000
0.000000
0.000000
0.000000
10.125000
10.125000
10.125000
9.421875
7.281250
7.281250
1.968750
0.000000
0.000000
0.000000
0.000000
0.000000
0.000000
0.000000
1.359375
1.359375
1.359375
0.000000
0.000000
0.000000
0.000000
5.656250
5.656250
0.000000
0.000000
0.000000
0.000000
0.000000
0.000000
0.000000
0.000000
0.000000
0.000000
0.000000
0.000000
0.000000
0.000000
0.000000
0.000000
0.000000
3.875000
3.875000
3.875000
5.921875
5.921875
5.921875
0.000000
0.000000
0.000000
0.000000
0.000000
0.000000
0.000000
0.000000
0.000000
0.000000
0.000000
0.000000
0.000000
0.000000
0.000000
0.000000
0.000000
1.828125
3.312500
3.546875
3.812500
3.812500
4.015625
4.312500
4.312500
4.453125
4.656250
4.843750
5.109375
5.109375
5.109375
5.468750
5.718750
5.718750
5.718750
2.234375
0.000000
0.000000
0.000000
6.828125
6.828125
7.234375
8.187500
8.953125
8.968750
9.500000
9.500000
9.500000
9.453125
5.750000
7.781250
7.781250
7.781250
7.812500
7.812500
7.812500
2.046875
0.000000
0.000000
0.000000
0.000000
0.000000
0.000000
0.000000
0.000000
0.000000
0.000000
0.000000
0.000000
0.000000
0.000000
0.000000
0.000000
0.000000
0.000000
0.000000
0.000000
0.000000
0.000000
0.000000
0.000000
0.000000
0.000000
0.000000
0.000000
0.000000
0.000000
0.000000
0.000000
0.000000
0.000000
0.000000
0.000000
0.000000
0.000000
0.000000
0.000000
0.000000
0.000000
0.000000
0.000000
0.000000
0.000000
0.000000
0.000000
0.000000
0.000000
0.000000
0.000000
0.000000
0.000000
0.000000
0.000000
0.000000
0.000000
0.000000
0.000000
0.000000
0.000000
0.000000
0.000000
0.000000
0.000000
0.000000
0.000000
0.000000
0.000000
0.000000
0.000000
0.000000
0.000000
0.000000
0.000000
0.000000
0.000000
2.328125
2.328125
7.500000
7.500000
4.468750
1.953125
2.031250
2.031250
2.031250
1.968750
2.265625
2.265625
2.265625
2.265625
2.390625
2.390625
2.390625
2.187500
2.984375
8.437500
27.703125
40.609375
40.609375
40.609375
32.140625
18.296875
5.484375
5.484375
5.484375
6.437500
6.437500
6.437500
6.203125
7.937500
7.937500
7.937500
6.000000
3.703125
3.265625
5.796875
5.796875
5.796875
2.265625
2.265625
2.265625
0.156250
0.156250
0.140625
0.140625
0.140625
0.000000
0.000000
0.078125
0.078125
0.687500
1.453125
1.453125
1.453125
0.453125
0.453125
0.453125
0.000000
8.546875
8.546875
8.546875
6.453125
0.000000
0.000000
0.000000
0.000000
0.000000
0.656250
7.250000
10.109375
10.109375
10.109375
4.421875
1.281250
1.281250
1.671875
9.609375
9.609375
2.062500
2.062500
0.406250
0.000000
0.000000
0.000000
0.000000
0.000000
0.000000
0.000000
0.000000
0.000000
0.000000
0.000000
0.000000
0.000000
0.000000
4.984375
4.984375
4.984375
11.609375
11.609375
11.609375
0.000000
0.000000
0.000000
0.000000
0.000000
0.000000
0.000000
0.000000
0.000000
0.000000
0.000000
0.000000
0.000000
0.000000
0.000000
7.156250
7.156250
2.968750
3.375000
3.781250
3.796875
3.953125
3.953125
4.312500
4.453125
4.453125
4.453125
4.671875
4.687500
4.687500
5.265625
5.265625
5.265625
5.156250
4.296875
4.296875
4.296875
0.968750
0.968750
3.812500
4.406250
4.406250
4.796875
5.609375
5.609375
5.968750
5.968750
5.968750
4.796875
6.062500
6.531250
6.812500
6.812500
6.812500
6.062500
5.937500
5.406250
0.000000
0.000000
0.000000
0.000000
0.000000
0.000000
0.000000
0.000000
0.000000
0.000000
0.000000
0.000000
0.000000
0.000000
0.000000
0.000000
0.000000
1.468750
1.468750
5.421875
5.421875
5.421875
0.000000
0.000000
0.000000
0.000000
0.000000
0.000000
0.000000
0.000000
0.000000
0.000000
0.000000
0.000000
0.000000
0.000000
0.000000
0.781250
7.562500
7.562500
0.000000
0.000000
0.000000
0.000000
0.000000
0.000000
0.000000
0.000000
0.000000
0.000000
0.000000
0.000000
0.000000
0.000000
0.000000
0.312500
2.515625
4.937500
4.937500
4.937500
6.796875
6.796875
6.796875
3.687500
0.000000
0.000000
0.000000
0.000000
0.000000
2.609375
9.656250
10.203125
10.203125
10.203125
3.531250
0.375000
1.328125
6.609375
8.140625
8.140625
0.546875
0.546875
0.546875
0.000000
0.000000
0.000000
0.000000
0.000000
0.000000
0.000000
0.000000
0.000000
0.000000
0.000000
0.000000
0.000000
0.000000
0.000000
0.000000
0.000000
2.890625
2.890625
2.890625
0.328125
0.000000
0.000000
0.000000
0.000000
0.000000
0.000000
0.000000
0.000000
0.000000
0.000000
0.000000
0.000000
0.000000
0.000000
0.671875
0.671875
0.000000
0.031250
0.515625
0.562500
0.562500
0.562500
0.625000
0.828125
0.828125
0.828125
0.703125
0.703125
0.703125
0.687500
0.796875
1.734375
1.890625
5.703125
14.781250
16.781250
16.781250
16.781250
1.812500
0.593750
0.593750
0.593750
1.046875
1.046875
1.046875
0.781250
0.781250
0.062500
0.718750
0.875000
0.968750
0.968750
1.656250
1.781250
4.296875
4.296875
0.000000
0.000000
0.000000
0.000000
0.000000
0.000000
0.000000
0.000000
0.000000
0.000000
0.000000
0.000000
0.000000
0.000000
0.000000
0.000000
0.000000
0.000000
0.000000
0.000000
2.515625
2.515625
2.515625
0.000000
0.000000
0.000000
0.000000
0.000000
0.000000
0.000000
0.281250
0.281250
0.281250
0.000000
0.000000
0.000000
0.000000
0.000000
0.000000
0.000000
3.218750
3.218750
3.546875
3.546875
4.046875
4.046875
4.046875
4.296875
4.437500
4.437500
4.593750
4.937500
4.937500
4.937500
4.421875
4.421875
4.328125
3.671875
0.000000
0.000000
0.000000
4.812500
4.828125
7.093750
7.312500
7.312500
7.312500
8.171875
9.625000
9.625000
9.625000
8.031250
4.562500
5.453125
6.343750
6.343750
6.343750
5.406250
4.062500
0.000000
2.375000
2.375000
2.375000
2.156250
2.156250
2.375000
2.375000
2.375000
2.343750
2.359375
2.625000
2.906250
2.906250
3.125000
3.125000
3.265625
6.765625
6.765625
6.765625
6.515625
6.234375
1.750000
2.265625
3.265625
3.703125
4.125000
4.125000
4.437500
5.156250
5.828125
5.953125
5.953125
5.953125
5.906250
4.531250
4.421875
5.531250
8.828125
8.828125
8.828125
5.718750
5.718750
6.640625
6.687500
6.875000
7.234375
7.765625
7.765625
7.765625
8.343750
8.562500
8.703125
9.781250
10.265625
10.265625
10.265625
9.640625
8.718750
8.718750
8.718750
13.109375
13.109375
13.109375
9.390625
10.390625
11.500000
12.187500
12.765625
13.843750
14.890625
16.765625
16.765625
16.765625
15.406250
14.140625
14.140625
14.140625
14.671875
17.203125
17.203125
1.296875
1.296875
0.765625
0.765625
0.625000
0.625000
0.890625
0.890625
0.890625
0.765625
0.765625
0.953125
1.296875
1.296875
1.437500
1.750000
6.140625
10.796875
10.796875
10.796875
4.328125
4.328125
2.156250
2.156250
2.156250
1.359375
2.093750
2.093750
2.093750
3.171875
4.656250
4.656250
4.656250
2.781250
2.468750
2.703125
2.703125
8.484375
8.484375
8.484375
0.000000
0.000000
0.000000
0.000000
0.000000
0.000000
0.000000
0.000000
0.000000
0.000000
0.000000
0.000000
0.000000
0.000000
0.000000
0.000000
0.000000
0.000000
4.578125
4.578125
4.578125
0.000000
0.000000
0.000000
0.000000
0.000000
0.000000
0.000000
0.000000
0.000000
0.000000
0.000000
0.000000
0.000000
0.000000
0.000000
0.000000
0.000000
1.515625
1.515625
1.859375
1.859375
1.328125
1.156250
1.218750
1.312500
1.312500
1.312500
1.703125
1.703125
1.703125
2.156250
2.312500
2.312500
2.312500
2.625000
8.546875
8.546875
8.625000
11.937500
11.937500
11.937500
2.328125
3.375000
3.984375
4.375000
4.468750
5.031250
5.109375
6.453125
6.453125
6.453125
5.734375
3.296875
4.093750
4.093750
4.921875
10.625000
10.625000
10.625000
3.328125
4.312500
5.390625
5.671875
5.671875
6.046875
6.484375
6.484375
6.484375
6.890625
7.171875
7.187500
7.500000
7.593750
7.796875
7.796875
8.046875
8.046875
8.046875
7.281250
3.046875
3.046875
6.781250
7.953125
8.328125
9.843750
10.359375
10.359375
11.406250
12.609375
12.609375
12.609375
7.953125
10.250000
11.078125
11.078125
11.078125
10.265625
10.265625
10.109375
3.421875
3.421875
0.171875
0.171875
0.000000
0.000000
0.000000
0.000000
0.000000
0.000000
0.000000
0.000000
0.000000
0.000000
0.000000
0.000000
0.000000
0.000000
0.000000
10.140625
10.140625
10.140625
4.281250
4.281250
0.000000
0.000000
0.000000
0.000000
0.000000
0.000000
0.000000
0.000000
0.000000
0.000000
0.000000
0.000000
0.000000
0.000000
0.000000
0.000000
1.812500
1.812500
1.812500
0.906250
1.000000
1.000000
1.046875
1.046875
1.046875
1.125000
1.203125
1.234375
1.234375
1.593750
1.593750
1.593750
2.250000
2.421875
2.421875
2.421875
0.000000
0.375000
0.375000
1.062500
1.375000
1.375000
1.375000
1.625000
2.156250
2.984375
3.562500
3.562500
3.562500
2.796875
2.156250
2.156250
2.156250
4.593750
4.593750
4.593750
2.125000
2.375000
2.625000
3.000000
3.000000
3.187500
3.546875
3.546875
3.703125
3.953125
3.953125
4.562500
5.656250
5.656250
6.171875
8.156250
15.093750
15.093750
15.093750
12.609375
9.953125
9.953125
8.296875
8.296875
8.296875
9.265625
9.890625
9.890625
10.250000
17.312500
20.421875
20.421875
20.421875
16.609375
10.828125
11.171875
13.359375
20.875000
20.875000
20.875000
4.078125
4.078125
2.171875
1.187500
0.703125
0.546875
0.546875
0.531250
1.031250
1.031250
1.031250
0.750000
0.718750
0.718750
0.000000
0.000000
0.000000
0.000000
0.000000
0.000000
0.000000
3.156250
3.156250
3.156250
4.093750
4.093750
4.093750
4.250000
4.250000
4.250000
4.140625
0.000000
0.000000
0.000000
0.000000
0.000000
0.000000
0.000000
0.000000
0.000000
3.890625
3.890625
3.890625
2.609375
2.203125
2.203125
2.250000
2.250000
2.328125
2.437500
2.437500
2.562500
2.953125
3.156250
3.156250
3.156250
3.062500
3.828125
8.609375
10.437500
14.281250
14.281250
14.281250
9.781250
2.984375
3.015625
3.015625
3.015625
3.734375
5.125000
8.390625
10.656250
10.656250
10.656250
8.140625
4.656250
4.656250
4.937500
9.046875
9.046875
2.234375
2.609375
2.609375
2.609375
2.203125
2.203125
2.484375
2.484375
2.484375
2.359375
2.390625
2.390625
2.890625
2.968750
2.968750
2.968750
4.859375
6.453125
6.453125
7.421875
7.421875
7.421875
1.984375
1.984375
1.984375
1.640625
1.640625
1.640625
1.546875
1.656250
1.656250
1.750000
3.671875
3.671875
3.671875
3.640625
4.140625
5.890625
5.890625
5.890625
0.000000
0.000000
0.000000
0.000000
0.000000
0.000000
0.000000
0.000000
0.000000
0.000000
0.000000
0.000000
0.000000
0.000000
0.000000
0.000000
2.593750
12.515625
12.515625
12.515625
13.718750
13.718750
13.718750
0.000000
0.000000
0.000000
0.000000
0.000000
0.000000
0.000000
3.062500
3.062500
3.062500
0.781250
0.000000
0.000000
0.000000
5.312500
10.187500
10.187500
0.078125
0.078125
0.078125
0.000000
0.000000
0.000000
0.000000
0.000000
0.000000
0.000000
0.000000
0.000000
0.000000
0.000000
0.000000
0.000000
0.000000
12.375000
12.375000
12.375000
7.093750
1.515625
1.515625
1.515625
0.000000
0.000000
0.000000
0.000000
0.000000
0.000000
0.000000
0.000000
0.000000
0.000000
0.000000
0.000000
0.000000
0.000000
13.406250
13.406250
0.000000
0.000000
0.000000
0.000000
0.000000
0.000000
0.000000
0.000000
0.000000
0.000000
0.000000
0.000000
0.000000
0.000000
0.000000
0.000000
0.000000
4.187500
4.187500
4.187500
3.718750
2.484375
2.484375
0.000000
0.000000
0.000000
0.000000
0.000000
0.000000
0.000000
0.000000
0.000000
0.000000
0.000000
0.000000
0.000000
0.000000
0.000000
9.078125
9.078125
0.171875
1.750000
1.750000
1.968750
1.968750
1.968750
2.312500
2.312500
2.312500
2.359375
2.359375
2.359375
2.890625
2.890625
2.890625
4.671875
8.218750
11.453125
11.453125
11.453125
3.765625
3.765625
2.234375
2.234375
2.281250
2.906250
3.453125
3.453125
3.453125
5.203125
5.203125
5.203125
4.531250
3.593750
4.000000
4.031250
7.187500
11.234375
11.234375
11.234375
0.000000
0.000000
0.000000
0.000000
0.000000
0.000000
0.000000
0.000000
0.000000
0.031250
0.031250
0.031250
0.000000
0.000000
0.000000
0.437500
0.437500
0.437500
10.671875
14.375000
14.375000
14.375000
2.218750
0.937500
1.265625
1.484375
1.484375
1.484375
1.796875
1.796875
1.796875
0.375000
0.000000
0.031250
0.031250
0.031250
0.000000
0.000000
0.000000
0.000000
