11.093750
11.562500
13.000000
10.890625
7.500000
6.031250
5.500000
5.671875
5.625000
5.765625
6.187500
6.718750
7.296875
7.031250
13.203125
3.875000
5.203125
0.000000
10.125000
9.421875
4.781250
21.671875
23.234375
29.984375
28.390625
16.265625
10.359375
8.531250
5.031250
12.187500
17.656250
23.734375
27.031250
17.250000
18.171875
21.890625
21.265625
25.046875
9.750000
11.218750
4.875000
3.203125
2.937500
3.046875
2.015625
2.625000
2.062500
2.078125
1.890625
3.296875
3.750000
2.640625
2.921875
5.390625
15.109375
26.437500
27.390625
18.781250
16.281250
9.000000
23.859375
20.437500
9.296875
0.937500
6.843750
0.453125
0.000000
0.000000
7.203125
1.109375
0.000000
0.000000
0.000000
1.234375
5.078125
12.593750
8.640625
3.312500
0.765625
0.000000
1.828125
1.390625
3.312500
3.546875
3.812500
3.750000
4.015625
4.312500
4.296875
4.453125
4.656250
4.843750
5.109375
5.046875
4.968750
5.468750
5.718750
4.859375
21.437500
44.546875
48.281250
45.437500
40.078125
33.578125
20.562500
14.375000
8.187500
8.953125
8.984375
9.500000
9.453125
5.609375
3.000000
5.750000
7.781250
7.703125
7.062500
7.812500
2.046875
0.000000
2.562500
2.812500
1.390625
0.000000
0.000000
0.000000
0.000000
0.000000
0.000000
0.000000
0.000000
0.000000
0.000000
0.000000
0.000000
0.000000
0.000000
0.000000
0.000000
0.000000
0.000000
5.578125
10.093750
14.703125
7.765625
0.000000
0.000000
0.250000
0.000000
12.562500
20.765625
16.781250
4.000000
0.000000
0.000000
0.000000
0.000000
0.000000
0.000000
0.000000
0.000000
0.000000
0.000000
3.312500
7.531250
9.140625
10.328125
10.109375
10.859375
11.937500
11.421875
10.703125
11.296875
14.468750
13.843750
0.000000
0.000000
0.000000
0.000000
0.000000
0.000000
0.000000
0.000000
0.000000
1.546875
1.656250
2.656250
3.812500
0.000000
0.000000
0.000000
0.000000
2.093750
10.703125
16.000000
10.078125
0.000000
0.078125
0.000000
2.328125
7.500000
4.468750
1.953125
1.609375
1.593750
2.031250
1.781250
1.546875
1.968750
2.265625
2.265625
2.250000
2.234375
2.390625
2.187500
1.328125
0.968750
2.984375
8.437500
27.703125
40.609375
32.140625
18.296875
4.546875
5.031250
5.484375
4.796875
5.015625
6.437500
6.125000
4.406250
6.203125
7.937500
6.000000
3.703125
3.265625
2.750000
1.109375
5.796875
5.437500
1.859375
2.265625
0.000000
0.156250
0.000000
0.000000
0.140625
0.000000
0.000000
0.000000
0.000000
0.078125
0.000000
0.687500
1.453125
0.390625
0.000000
0.453125
0.000000
0.000000
0.000000
8.546875
6.453125
0.000000
0.000000
0.000000
0.000000
0.000000
0.000000
0.000000
0.656250
7.250000
10.109375
4.421875
0.265625
0.875000
1.281250
0.500000
1.671875
9.609375
7.171875
8.593750
9.031250
8.468750
7.078125
6.156250
7.078125
7.078125
7.234375
7.953125
7.718750
8.046875
7.968750
9.078125
14.296875
19.203125
24.671875
30.593750
44.828125
49.796875
52.765625
61.375000
38.703125
28.078125
20.656250
12.140625
8.937500
9.750000
9.812500
8.937500
13.046875
13.671875
14.593750
10.843750
12.312500
19.500000
19.796875
21.296875
25.843750
26.546875
11.562500
3.625000
6.703125
12.343750
12.562500
16.890625
17.687500
18.390625
20.484375
19.750000
19.468750
22.156250
22.578125
25.750000
36.390625
39.468750
53.375000
49.359375
72.062500
56.812500
47.250000
20.703125
18.390625
3.812500
4.406250
6.437500
9.078125
19.765625
23.484375
24.546875
17.437500
7.234375
23.390625
40.953125
44.843750
42.109375
41.984375
34.953125
15.796875
41.468750
1.000000
1.593750
0.656250
5.875000
5.031250
1.125000
0.000000
0.000000
0.000000
0.000000
0.000000
0.000000
0.000000
0.000000
0.000000
0.000000
0.000000
0.000000
1.468750
0.000000
5.421875
0.000000
0.000000
0.000000
0.000000
0.000000
0.000000
0.000000
0.000000
0.000000
0.000000
0.000000
0.000000
0.000000
0.000000
0.000000
0.000000
0.000000
0.781250
15.546875
0.000000
0.000000
0.000000
0.000000
0.000000
0.000000
0.000000
0.000000
0.000000
0.000000
0.000000
0.000000
0.000000
0.000000
0.000000
0.000000
0.312500
2.515625
4.937500
2.453125
0.000000
6.796875
3.687500
0.000000
0.000000
0.000000
0.000000
0.000000
0.000000
0.000000
2.609375
9.656250
10.203125
3.531250
0.000000
0.000000
0.375000
1.328125
6.609375
32.718750
3.734375
4.000000
7.187500
2.734375
0.000000
0.000000
1.765625
3.015625
2.578125
1.296875
1.625000
3.250000
2.437500
0.953125
0.000000
0.000000
1.796875
0.000000
0.000000
0.000000
1.437500
12.828125
14.281250
0.000000
0.000000
0.000000
0.000000
0.781250
0.000000
1.625000
1.562500
0.000000
0.000000
0.000000
0.000000
0.000000
0.000000
17.468750
21.703125
21.703125
8.031250
12.750000
14.734375
7.453125
0.562500
0.500000
0.500000
0.625000
0.828125
0.625000
0.484375
0.703125
0.687500
0.093750
0.468750
0.796875
1.734375
1.890625
15.890625
43.031250
45.625000
48.937500
50.625000
50.812500
43.484375
15.593750
9.343750
4.718750
3.656250
20.671875
21.859375
8.078125
0.000000
0.718750
0.875000
0.968750
4.578125
23.812500
1.781250
4.296875
1.343750
0.000000
0.000000
9.250000
12.296875
12.718750
9.687500
10.640625
13.109375
12.375000
10.218750
10.515625
11.781250
16.046875
21.578125
0.000000
0.000000
0.000000
0.000000
0.000000
0.000000
2.515625
0.000000
0.000000
0.000000
0.000000
0.000000
2.171875
0.000000
0.000000
0.000000
0.281250
11.140625
20.546875
13.921875
5.140625
0.000000
0.000000
0.000000
37.640625
14.156250
11.531250
4.781250
4.375000
3.453125
4.046875
3.828125
3.687500
4.296875
4.437500
4.031250
4.593750
4.937500
4.078125
4.421875
4.328125
3.671875
3.546875
8.781250
20.890625
38.328125
34.734375
45.203125
52.328125
26.312500
15.312500
15.656250
14.875000
18.250000
31.453125
20.890625
4.562500
3.328125
4.031250
5.453125
6.343750
12.000000
4.062500
0.000000
6.671875
7.703125
8.515625
5.890625
3.000000
5.078125
9.984375
11.093750
11.328125
12.281250
13.828125
16.234375
16.656250
16.421875
20.031250
33.812500
18.546875
13.328125
6.765625
6.515625
6.234375
0.000000
1.750000
0.812500
2.265625
3.265625
3.703125
8.234375
19.015625
21.390625
19.078125
22.875000
21.234375
9.187500
4.531250
3.859375
24.500000
13.656250
5.531250
8.828125
7.687500
7.171875
8.406250
10.750000
16.328125
13.890625
16.265625
16.140625
19.250000
20.718750
20.171875
21.687500
23.406250
25.468750
38.859375
30.171875
40.015625
43.609375
41.265625
45.875000
29.609375
0.000000
20.781250
10.578125
9.437500
23.828125
28.609375
30.453125
35.781250
49.265625
51.921875
31.656250
21.515625
29.953125
39.984375
47.593750
45.562500
42.812500
17.125000
25.312500
27.265625
5.546875
0.000000
0.765625
0.328125
0.625000
0.781250
3.078125
5.578125
7.796875
8.890625
8.984375
9.562500
10.453125
16.578125
15.187500
18.250000
3.046875
12.671875
42.281250
32.937500
40.265625
37.796875
27.515625
17.750000
1.171875
4.234375
1.500000
2.296875
12.281250
4.984375
3.171875
4.656250
3.656250
14.109375
25.875000
28.937500
18.656250
2.234375
8.484375
8.093750
0.000000
0.000000
0.000000
0.000000
0.000000
0.000000
0.000000
0.000000
0.000000
0.000000
0.000000
0.000000
0.000000
0.000000
0.000000
0.000000
0.000000
0.000000
0.000000
4.578125
0.468750
0.000000
0.000000
0.000000
0.000000
0.000000
0.000000
0.000000
0.000000
0.000000
0.000000
0.000000
0.000000
0.000000
0.000000
0.000000
0.000000
0.000000
0.000000
1.515625
9.406250
13.828125
16.500000
18.343750
18.359375
16.187500
11.468750
9.437500
8.453125
8.484375
9.375000
9.265625
9.484375
8.218750
1.968750
1.750000
2.625000
8.546875
5.437500
8.625000
55.000000
56.171875
76.890625
74.640625
72.328125
59.562500
43.156250
30.656250
18.281250
19.515625
29.109375
35.968750
31.734375
25.843750
28.421875
23.171875
16.234375
21.250000
34.781250
34.765625
0.000000
3.328125
9.062500
7.531250
8.281250
5.625000
6.046875
6.484375
6.296875
6.296875
6.890625
7.171875
7.187500
7.500000
7.593750
7.796875
6.812500
8.046875
7.281250
0.000000
3.046875
34.765625
25.375000
27.203125
39.046875
20.765625
12.250000
10.359375
10.281250
11.406250
12.609375
7.953125
3.218750
5.484375
10.250000
11.078125
10.171875
17.265625
43.843750
8.203125
5.515625
2.828125
0.171875
0.000000
0.000000
0.000000
0.000000
0.000000
0.000000
0.000000
0.000000
0.000000
0.000000
0.000000
1.734375
8.937500
22.937500
12.046875
19.046875
19.203125
17.796875
0.000000
4.281250
0.000000
0.000000
0.000000
0.000000
7.234375
13.281250
13.968750
6.953125
2.625000
0.000000
0.000000
0.234375
2.906250
0.000000
0.000000
0.000000
0.000000
11.625000
6.625000
8.750000
3.265625
1.734375
4.703125
0.937500
1.046875
0.859375
1.046875
1.125000
1.203125
1.234375
13.468750
3.921875
1.140625
1.203125
2.250000
2.421875
0.000000
0.000000
0.000000
0.375000
0.203125
21.953125
17.937500
18.625000
24.062500
25.468750
25.921875
2.984375
3.562500
2.796875
1.625000
1.500000
2.156250
1.687500
2.046875
4.593750
0.515625
14.296875
14.156250
13.015625
2.625000
3.000000
2.609375
3.187500
3.546875
3.265625
3.703125
3.953125
3.609375
4.562500
5.656250
5.078125
6.171875
8.156250
15.093750
12.609375
0.000000
33.718750
64.421875
68.250000
76.062500
68.140625
48.859375
28.609375
11.265625
14.000000
26.265625
22.390625
20.421875
16.609375
10.828125
9.390625
10.015625
11.171875
13.359375
20.875000
15.187500
5.078125
2.171875
1.187500
1.250000
0.500000
0.546875
0.531250
0.078125
0.437500
1.031250
0.750000
0.593750
4.562500
21.671875
12.687500
34.500000
23.203125
48.265625
55.812500
41.437500
48.812500
45.906250
37.312500
37.796875
42.625000
33.437500
30.328125
20.328125
8.796875
4.140625
0.000000
0.000000
0.000000
21.031250
34.656250
0.000000
0.000000
0.000000
0.000000
0.000000
15.296875
20.593750
28.515625
32.000000
32.578125
23.531250
19.140625
23.171875
27.671875
29.640625
31.468750
30.734375
28.921875
23.500000
18.250000
3.062500
2.937500
1.062500
3.828125
8.609375
10.437500
14.281250
23.062500
20.781250
44.203125
15.046875
40.000000
46.671875
46.671875
54.281250
54.703125
65.187500
76.718750
62.484375
35.296875
30.390625
30.828125
22.437500
36.796875
46.031250
3.500000
1.203125
2.609375
2.031250
2.203125
2.187500
2.093750
2.484375
2.296875
2.140625
2.359375
2.390625
2.218750
2.890625
2.968750
22.406250
23.984375
38.828125
45.015625
40.984375
60.593750
42.640625
44.515625
42.156250
14.843750
23.187500
21.937500
3.312500
1.468750
1.390625
1.656250
1.203125
1.750000
3.671875
8.031250
3.437500
3.000000
4.140625
7.828125
34.984375
9.703125
12.296875
18.015625
18.156250
14.062500
3.859375
0.000000
0.000000
0.000000
0.000000
0.000000
0.000000
0.000000
3.234375
13.078125
11.000000
25.500000
37.328125
50.453125
45.328125
20.109375
85.968750
57.625000
57.921875
67.296875
60.718750
59.203125
36.828125
18.203125
2.125000
0.593750
3.062500
4.703125
8.578125
0.000000
0.000000
0.000000
0.000000
5.312500
10.187500
0.000000
0.078125
0.000000
0.000000
0.000000
0.000000
4.703125
11.312500
16.375000
18.468750
17.437500
18.359375
34.609375
39.968750
33.328125
39.171875
31.906250
45.593750
76.203125
58.750000
54.015625
18.234375
6.953125
0.531250
0.000000
0.000000
0.765625
11.359375
9.328125
3.078125
0.000000
9.546875
26.140625
49.468750
52.609375
19.125000
0.000000
0.000000
5.843750
38.515625
8.093750
3.843750
7.203125
4.500000
7.656250
9.234375
13.609375
21.859375
26.843750
27.640625
29.843750
32.437500
42.656250
43.031250
43.671875
21.031250
0.187500
0.000000
4.187500
3.718750
0.000000
2.484375
5.609375
0.000000
0.000000
0.000000
0.000000
17.109375
23.125000
18.093750
4.031250
8.546875
25.093750
32.937500
40.000000
29.796875
2.562500
0.000000
0.000000
13.203125
3.640625
3.421875
4.796875
3.812500
6.125000
12.453125
14.875000
12.703125
12.328125
12.921875
14.484375
12.375000
2.437500
10.000000
17.187500
32.156250
34.843750
35.406250
21.500000
19.343750
3.765625
8.000000
12.000000
2.234375
11.609375
2.375000
3.125000
16.125000
19.953125
25.546875
30.515625
22.625000
15.140625
8.640625
28.703125
50.984375
60.500000
37.875000
26.484375
14.953125
0.000000
0.000000
0.000000
2.437500
4.000000
3.453125
5.937500
11.250000
13.828125
14.593750
13.671875
13.406250
7.937500
24.453125
14.578125
63.609375
59.921875
79.968750
69.359375
79.500000
84.000000
13.343750
0.468750
0.578125
0.937500
1.265625
1.484375
1.250000
1.484375
1.796875
11.265625
14.562500
5.812500
2.921875
5.078125
0.000000
44.328125
54.453125
67.000000
60.281250
