1.437500
1.437500
1.062500
0.000000
0.000000
0.000000
0.000000
0.000000
0.000000
0.000000
0.000000
0.000000
0.000000
0.000000
0.000000
0.000000
0.000000
0.000000
0.000000
0.000000
0.000000
0.000000
0.000000
0.000000
0.000000
0.000000
0.000000
0.000000
0.000000
0.000000
0.000000
0.000000
0.000000
0.000000
0.000000
0.000000
0.000000
0.000000
0.859375
3.640625
3.812500
4.250000
4.250000
4.250000
0.000000
0.000000
0.000000
0.000000
0.000000
0.000000
0.000000
0.000000
0.000000
0.000000
0.000000
0.000000
0.000000
0.000000
0.000000
0.000000
0.000000
0.000000
0.000000
0.000000
0.000000
0.000000
0.000000
0.000000
0.000000
0.000000
0.000000
0.000000
0.000000
0.000000
0.000000
0.000000
0.156250
0.156250
0.156250
0.000000
4.968750
5.281250
5.281250
5.281250
4.687500
4.625000
4.703125
4.703125
4.703125
4.812500
5.031250
5.156250
5.218750
5.265625
5.265625
5.265625
5.406250
5.593750
5.843750
5.984375
6.000000
6.000000
6.109375
6.203125
6.609375
6.765625
6.765625
6.765625
6.765625
6.750000
6.656250
6.656250
6.843750
7.687500
7.687500
7.687500
6.781250
4.484375
4.343750
4.984375
8.406250
8.406250
9.781250
9.781250
9.781250
8.953125
8.750000
8.750000
9.234375
10.046875
10.359375
10.593750
10.921875
10.921875
10.921875
11.656250
12.203125
12.406250
13.000000
13.765625
13.875000
13.875000
13.875000
13.828125
13.593750
13.015625
11.828125
10.968750
10.406250
10.031250
10.125000
10.156250
10.156250
10.156250
10.156250
11.000000
11.000000
11.000000
9.718750
7.875000
1.375000
1.375000
1.375000
1.093750
1.093750
1.093750
1.015625
1.046875
1.046875
1.046875
1.046875
1.062500
1.109375
1.187500
1.187500
1.187500
1.187500
1.187500
1.265625
1.281250
1.281250
1.281250
1.296875
1.343750
1.390625
1.531250
1.546875
1.593750
1.593750
1.593750
1.578125
1.578125
1.562500
1.484375
2.375000
3.656250
3.656250
3.656250
3.234375
4.500000
4.843750
5.484375
5.484375
5.484375
1.609375
1.656250
1.656250
1.703125
1.703125
1.750000
1.828125
1.921875
2.109375
2.265625
2.281250
2.281250
2.281250
2.265625
2.390625
2.796875
2.890625
2.968750
2.968750
2.968750
2.921875
2.843750
2.562500
2.281250
2.281250
2.281250
2.281250
2.281250
2.250000
2.250000
2.250000
2.296875
3.640625
4.406250
4.437500
4.437500
6.562500
6.562500
6.562500
5.609375
4.359375
4.375000
4.453125
4.453125
4.453125
4.546875
4.781250
4.859375
4.921875
4.921875
4.921875
4.859375
5.015625
5.203125
5.406250
5.578125
5.578125
5.578125
5.593750
5.671875
6.078125
6.375000
6.375000
6.375000
6.375000
6.375000
6.250000
6.250000
6.218750
7.421875
9.218750
10.437500
10.437500
10.437500
12.656250
17.390625
20.203125
20.203125
20.203125
18.734375
11.625000
9.625000
8.218750
8.218750
8.671875
9.531250
9.781250
9.984375
10.328125
10.453125
10.531250
11.453125
11.656250
11.812500
12.437500
13.218750
13.328125
13.328125
13.328125
13.265625
12.906250
12.265625
10.906250
10.000000
9.718750
9.453125
9.625000
9.671875
9.671875
9.671875
9.671875
10.671875
13.265625
13.640625
13.640625
13.640625
4.218750
4.218750
4.218750
3.765625
3.750000
4.062500
4.062500
4.187500
4.203125
4.203125
4.359375
4.500000
4.578125
4.640625
4.687500
4.687500
4.687500
4.812500
4.906250
5.093750
5.203125
5.203125
5.203125
5.343750
5.343750
5.750000
5.796875
5.796875
5.796875
5.812500
5.812500
5.812500
5.625000
6.156250
6.750000
6.750000
6.750000
5.640625
2.796875
6.906250
8.875000
8.875000
8.875000
7.437500
6.609375
6.843750
7.187500
7.203125
7.234375
7.718750
8.421875
8.421875
8.609375
8.953125
8.953125
9.093750
9.906250
9.906250
10.093750
11.031250
11.453125
11.453125
11.453125
11.234375
10.406250
9.218750
8.359375
8.390625
8.531250
8.531250
8.578125
8.625000
8.625000
8.625000
8.125000
8.703125
9.296875
9.296875
9.296875
7.578125
2.046875
2.046875
2.046875
2.046875
0.250000
0.000000
0.109375
0.109375
0.234375
0.234375
0.234375
0.234375
0.265625
0.265625
0.265625
0.359375
0.359375
0.359375
0.484375
0.484375
0.484375
0.437500
0.437500
0.437500
0.453125
0.453125
0.812500
0.812500
0.812500
0.671875
0.562500
0.562500
0.562500
0.359375
1.031250
5.078125
7.281250
7.281250
7.281250
4.968750
9.218750
11.296875
11.296875
11.296875
7.375000
3.187500
1.453125
2.015625
2.015625
2.015625
2.203125
2.531250
2.531250
2.531250
2.640625
2.640625
2.640625
3.359375
3.359375
3.359375
2.843750
3.484375
3.687500
3.828125
3.828125
3.828125
2.843750
2.109375
1.484375
1.265625
1.265625
1.515625
1.906250
1.906250
1.906250
1.203125
1.187500
8.703125
8.703125
8.703125
2.250000
2.406250
2.406250
2.406250
2.390625
2.390625
2.500000
2.500000
2.500000
2.484375
2.593750
2.593750
2.671875
2.671875
2.671875
2.671875
2.843750
2.843750
2.843750
2.921875
2.921875
2.921875
2.890625
2.890625
3.046875
3.046875
3.046875
3.203125
3.203125
3.203125
3.156250
3.156250
3.156250
3.734375
3.734375
3.734375
2.671875
2.140625
4.656250
4.656250
6.437500
6.437500
6.437500
5.437500
3.734375
3.734375
3.734375
3.609375
4.125000
4.125000
4.125000
4.250000
4.546875
4.546875
4.671875
4.781250
4.781250
4.890625
5.468750
5.468750
5.468750
5.453125
5.453125
5.453125
4.562500
4.343750
4.312500
4.296875
4.296875
4.671875
4.671875
4.671875
4.406250
4.265625
4.265625
5.406250
5.406250
5.406250
3.687500
3.687500
0.000000
0.000000
0.000000
0.000000
0.000000
0.000000
0.000000
0.000000
0.000000
0.000000
0.000000
0.000000
0.000000
0.000000
0.000000
0.000000
0.000000
0.000000
0.000000
0.000000
0.000000
0.000000
0.000000
0.000000
0.000000
0.000000
0.000000
0.000000
0.000000
0.000000
0.000000
0.000000
0.000000
0.000000
0.000000
0.000000
0.000000
3.562500
4.468750
4.937500
4.937500
4.937500
3.968750
0.046875
0.000000
0.000000
0.000000
0.000000
0.000000
0.000000
0.000000
0.000000
0.000000
0.000000
0.000000
0.000000
0.000000
0.000000
0.000000
0.000000
0.000000
0.000000
0.000000
0.000000
0.000000
0.000000
0.000000
0.000000
0.000000
0.000000
0.000000
0.000000
0.000000
0.000000
0.000000
0.000000
0.000000
0.000000
0.000000
0.000000
2.281250
2.734375
3.312500
3.593750
3.734375
3.765625
3.765625
3.968750
3.968750
3.968750
4.156250
4.156250
4.171875
4.484375
4.484375
4.484375
4.453125
4.546875
4.546875
4.828125
4.984375
4.984375
5.093750
5.187500
5.187500
5.531250
5.609375
5.609375
5.859375
5.859375
5.859375
5.703125
5.703125
5.703125
5.531250
4.453125
4.156250
3.734375
0.140625
0.000000
0.000000
1.468750
4.031250
4.031250
5.500000
6.171875
6.171875
6.265625
6.328125
6.484375
7.062500
7.406250
7.718750
8.000000
8.000000
8.000000
8.531250
8.625000
9.031250
9.609375
9.890625
10.328125
10.328125
10.328125
10.203125
9.781250
9.218750
8.703125
8.328125
8.328125
8.453125
8.453125
8.453125
8.296875
8.250000
8.250000
8.078125
7.625000
7.625000
7.625000
0.000000
0.000000
0.000000
0.000000
0.000000
0.000000
0.000000
0.000000
0.000000
0.000000
0.000000
0.000000
0.000000
0.000000
0.000000
0.000000
0.000000
0.000000
0.000000
0.000000
0.000000
0.000000
0.000000
0.000000
0.000000
0.000000
0.000000
0.000000
0.000000
0.000000
0.000000
0.000000
0.000000
0.000000
0.000000
0.000000
3.000000
5.828125
5.828125
5.828125
5.015625
0.000000
0.000000
0.000000
0.000000
0.000000
0.000000
0.000000
0.000000
0.000000
0.000000
0.000000
0.000000
0.000000
0.000000
0.000000
0.000000
0.000000
0.000000
0.000000
0.000000
0.000000
0.000000
0.000000
0.000000
0.000000
0.000000
0.000000
0.000000
0.000000
0.000000
0.000000
0.000000
0.000000
0.000000
0.000000
0.000000
0.000000
2.281250
2.281250
1.687500
1.687500
1.687500
0.593750
0.640625
0.812500
0.812500
0.812500
0.890625
0.890625
0.890625
0.890625
0.937500
0.937500
0.937500
0.937500
1.000000
1.078125
1.125000
1.125000
1.125000
1.109375
1.140625
1.343750
1.343750
1.343750
1.375000
1.375000
1.375000
1.343750
1.359375
1.359375
1.359375
2.812500
2.906250
3.953125
4.109375
4.109375
4.109375
0.953125
5.265625
5.265625
5.265625
3.000000
1.875000
1.921875
2.328125
2.328125
2.328125
2.500000
2.703125
2.703125
2.703125
2.906250
2.906250
3.062500
3.343750
3.343750
3.343750
3.484375
3.796875
3.796875
3.796875
3.625000
3.156250
2.515625
1.953125
1.968750
2.250000
2.328125
2.328125
2.437500
2.437500
2.437500
2.218750
3.296875
4.421875
4.421875
4.421875
3.859375
0.000000
0.000000
0.000000
0.000000
0.000000
0.000000
0.000000
0.000000
0.000000
0.000000
0.000000
0.000000
0.000000
0.000000
0.000000
0.000000
0.000000
0.000000
0.000000
0.000000
0.000000
0.000000
0.000000
0.000000
0.000000
0.000000
0.000000
0.000000
0.000000
0.000000
0.000000
0.000000
0.000000
0.000000
0.000000
1.453125
1.453125
1.453125
0.000000
0.000000
0.000000
0.000000
0.000000
0.000000
0.000000
0.000000
0.000000
0.000000
0.000000
0.000000
0.000000
0.000000
0.000000
0.000000
0.000000
0.000000
0.000000
0.000000
0.000000
0.000000
0.000000
0.000000
0.000000
0.000000
0.000000
0.000000
0.000000
0.000000
0.000000
0.000000
0.000000
0.000000
0.000000
0.000000
0.000000
0.000000
0.312500
0.312500
0.312500
0.171875
1.734375
1.734375
0.000000
0.000000
0.000000
0.000000
0.000000
0.000000
0.000000
0.000000
0.000000
0.000000
0.000000
0.000000
0.000000
0.000000
0.000000
0.000000
0.000000
0.000000
0.000000
0.000000
0.000000
0.000000
0.000000
0.000000
0.000000
0.000000
0.000000
0.000000
0.000000
0.000000
0.000000
0.000000
0.000000
0.000000
0.000000
0.000000
2.750000
9.812500
9.812500
9.812500
6.500000
0.000000
0.000000
0.000000
0.000000
0.000000
0.000000
0.000000
0.000000
0.000000
0.000000
0.000000
0.000000
0.000000
0.000000
0.000000
0.000000
0.000000
0.000000
0.000000
0.000000
0.000000
0.000000
0.000000
0.000000
0.000000
0.000000
0.000000
0.000000
0.000000
0.000000
0.000000
0.000000
0.000000
0.000000
0.000000
0.000000
0.000000
0.265625
1.562500
1.562500
1.562500
0.281250
0.000000
0.000000
0.000000
0.000000
0.000000
0.000000
0.000000
0.000000
0.000000
0.000000
0.000000
0.000000
0.000000
0.000000
0.000000
0.000000
0.000000
0.000000
0.000000
0.000000
0.000000
0.000000
0.000000
0.000000
0.000000
0.000000
0.000000
0.000000
1.328125
1.328125
1.328125
0.812500
4.968750
5.078125
5.078125
5.078125
3.421875
0.000000
0.000000
0.000000
0.000000
0.000000
0.000000
0.000000
0.000000
0.000000
0.000000
0.000000
0.000000
0.000000
0.000000
0.000000
0.000000
0.000000
0.000000
0.000000
0.000000
0.000000
0.000000
0.000000
0.000000
0.000000
0.000000
0.000000
0.000000
0.000000
0.000000
0.000000
0.000000
0.000000
0.875000
0.875000
0.875000
0.000000
0.000000
0.000000
0.000000
1.125000
1.125000
1.125000
0.953125
0.953125
0.953125
0.875000
0.875000
0.875000
0.828125
0.828125
0.843750
1.078125
1.078125
1.078125
0.921875
0.828125
0.828125
0.796875
0.828125
0.921875
0.921875
0.921875
1.078125
1.078125
1.125000
1.593750
1.593750
1.593750
1.390625
1.140625
1.093750
1.140625
5.078125
5.078125
5.078125
4.875000
0.000000
0.000000
0.000000
0.000000
0.000000
0.000000
0.000000
0.000000
0.000000
0.000000
0.000000
0.000000
0.000000
0.000000
0.000000
0.000000
0.000000
0.000000
0.000000
0.000000
0.000000
0.000000
1.093750
2.718750
3.437500
3.437500
3.437500
3.265625
2.625000
1.281250
1.093750
1.656250
1.890625
1.890625
1.890625
1.859375
1.859375
4.125000
6.203125
6.703125
6.703125
2.875000
2.875000
1.328125
0.609375
0.000000
0.000000
0.000000
0.000000
0.000000
0.000000
0.000000
0.000000
0.000000
0.000000
0.000000
0.000000
0.000000
0.000000
0.000000
0.000000
0.000000
0.000000
0.000000
0.000000
0.000000
0.000000
0.000000
0.000000
0.000000
0.000000
0.000000
0.000000
0.000000
0.000000
0.000000
0.000000
0.000000
0.000000
0.000000
0.000000
0.312500
1.234375
1.234375
1.234375
0.000000
0.000000
0.000000
0.000000
0.000000
0.000000
0.000000
0.000000
0.000000
0.000000
0.000000
0.000000
0.000000
0.000000
0.000000
0.000000
0.000000
0.000000
0.000000
0.000000
0.000000
0.000000
0.000000
0.000000
0.000000
0.000000
0.000000
0.000000
0.000000
0.000000
0.000000
0.000000
0.000000
0.000000
0.000000
0.000000
