2.640625
2.671875
2.687500
2.406250
1.812500
1.828125
1.796875
1.750000
1.781250
1.859375
1.937500
1.921875
1.937500
1.953125
2.000000
2.015625
2.015625
2.046875
2.046875
2.156250
2.171875
2.140625
2.109375
2.140625
2.218750
2.296875
2.312500
2.296875
2.296875
2.281250
2.281250
2.312500
2.359375
2.343750
2.453125
2.515625
2.515625
2.609375
2.640625
2.640625
2.656250
2.640625
2.625000
2.656250
2.609375
2.640625
2.671875
2.656250
2.718750
2.781250
2.843750
2.843750
2.859375
2.812500
2.875000
2.859375
2.859375
2.812500
2.828125
2.765625
2.812500
2.890625
2.890625
2.859375
2.875000
2.843750
2.828125
3.000000
3.171875
3.156250
3.109375
3.203125
3.156250
3.031250
2.625000
2.218750
1.812500
1.437500
2.125000
2.328125
1.968750
3.375000
5.218750
5.562500
5.078125
5.359375
4.703125
3.765625
3.750000
3.781250
3.812500
3.937500
3.953125
4.015625
4.093750
4.203125
4.250000
4.343750
4.375000
4.531250
4.531250
4.578125
4.718750
4.734375
4.843750
4.875000
4.937500
5.015625
5.093750
5.093750
5.171875
5.281250
5.328125
5.375000
5.531250
5.640625
5.765625
5.765625
5.812500
5.828125
5.921875
6.046875
6.109375
6.171875
6.125000
6.031250
6.015625
5.953125
5.843750
5.781250
5.562500
5.312500
5.078125
4.921875
4.796875
4.656250
4.531250
4.421875
4.390625
4.359375
4.390625
4.421875
4.421875
4.343750
4.296875
4.421875
4.406250
4.406250
4.375000
4.281250
4.203125
4.203125
4.265625
4.390625
4.375000
4.390625
4.578125
4.500000
3.265625
2.500000
1.968750
2.000000
2.125000
1.875000
1.687500
1.687500
1.640625
1.578125
1.640625
1.625000
1.718750
1.734375
1.796875
1.875000
1.890625
1.906250
1.906250
1.875000
1.921875
1.984375
2.000000
2.015625
1.968750
2.015625
2.078125
2.125000
2.125000
2.171875
2.140625
2.125000
2.156250
2.250000
2.281250
2.312500
2.312500
2.359375
2.437500
2.500000
2.515625
2.515625
2.515625
2.515625
2.531250
2.578125
2.609375
2.625000
2.578125
2.578125
2.687500
2.750000
2.765625
2.812500
2.828125
2.828125
2.859375
2.906250
2.906250
2.937500
2.875000
2.796875
2.843750
2.875000
2.937500
2.953125
2.937500
2.890625
2.937500
3.015625
3.093750
3.109375
3.093750
3.218750
3.234375
3.656250
4.531250
4.765625
4.218750
3.328125
2.765625
3.203125
3.437500
4.281250
5.859375
6.234375
5.875000
5.390625
4.500000
4.156250
3.890625
3.921875
3.937500
3.984375
4.000000
4.078125
4.234375
4.281250
4.390625
4.421875
4.484375
4.578125
4.609375
4.781250
4.937500
5.000000
5.093750
5.156250
5.203125
5.234375
5.265625
5.375000
5.453125
5.515625
5.562500
5.578125
5.828125
5.968750
6.140625
6.156250
6.203125
6.171875
6.312500
6.484375
6.609375
6.687500
6.687500
6.625000
6.578125
6.468750
6.375000
6.281250
6.031250
5.703125
5.359375
5.187500
4.953125
4.921875
4.734375
4.703125
4.656250
4.718750
4.734375
4.718750
4.734375
4.656250
4.703125
4.781250
4.812500
4.828125
4.656250
4.546875
4.406250
4.406250
4.515625
4.515625
4.546875
4.578125
4.921875
5.734375
6.781250
5.781250
0.453125
1.609375
1.078125
1.078125
1.437500
1.375000
1.343750
1.296875
1.359375
1.437500
1.359375
1.234375
1.187500
1.421875
1.531250
1.531250
1.468750
1.437500
1.421875
1.453125
1.687500
1.656250
1.515625
1.468750
1.531250
1.640625
1.734375
1.750000
1.703125
1.687500
1.703125
1.656250
1.750000
1.765625
1.718750
1.703125
1.718750
1.750000
1.875000
1.921875
1.890625
1.937500
1.906250
1.921875
1.968750
2.046875
2.015625
1.937500
1.875000
1.968750
2.078125
2.078125
2.078125
2.031250
2.078125
2.187500
2.296875
2.281250
2.046875
2.000000
2.046875
2.156250
2.281250
2.234375
2.156250
2.078125
2.093750
2.171875
2.234375
2.250000
2.046875
2.171875
2.625000
2.562500
1.953125
0.937500
0.171875
0.000000
0.421875
0.000000
0.000000
0.000000
0.015625
2.531250
3.203125
2.390625
1.859375
2.265625
2.765625
2.843750
2.828125
2.718750
2.765625
2.703125
2.796875
2.921875
3.031250
3.015625
3.000000
3.031250
3.062500
3.078125
3.156250
3.375000
3.500000
3.468750
3.593750
3.468750
3.484375
3.578125
3.812500
3.859375
3.843750
3.687500
3.609375
3.781250
4.125000
4.203125
4.265625
4.046875
4.000000
4.203125
4.390625
4.625000
4.718750
4.812500
4.546875
4.562500
4.578125
4.437500
4.078125
3.812500
3.671875
3.609375
3.546875
3.406250
3.328125
3.328125
3.328125
3.312500
3.421875
3.484375
3.328125
3.234375
3.234375
3.406250
3.484375
3.531250
3.312500
3.140625
3.125000
3.156250
3.171875
3.203125
3.281250
3.187500
3.781250
3.125000
3.125000
2.546875
0.359375
0.515625
1.156250
1.562500
2.046875
1.937500
1.953125
2.000000
1.984375
1.906250
1.625000
1.609375
1.687500
1.921875
2.046875
2.000000
1.968750
1.890625
2.015625
2.062500
2.093750
1.968750
1.875000
1.906250
2.031250
2.109375
2.203125
2.203125
2.140625
2.171875
2.171875
2.265625
2.265625
2.281250
2.234375
2.093750
2.093750
2.203125
2.296875
2.421875
2.375000
2.375000
2.453125
2.546875
2.609375
2.546875
2.453125
2.406250
2.437500
2.546875
2.656250
2.625000
2.531250
2.625000
2.796875
3.031250
3.093750
2.906250
2.671875
2.609375
2.765625
2.875000
3.000000
2.906250
2.781250
2.750000
2.781250
2.828125
2.609375
2.546875
2.703125
3.171875
3.765625
3.671875
2.359375
0.078125
0.000000
0.000000
0.000000
0.000000
0.000000
0.109375
0.515625
0.812500
1.453125
1.687500
2.281250
3.031250
3.421875
3.390625
3.375000
3.218750
3.140625
3.078125
3.234375
3.281250
3.343750
3.453125
3.390625
3.312500
3.265625
3.343750
3.593750
3.828125
3.968750
4.140625
4.015625
4.046875
4.078125
4.406250
4.578125
4.421875
4.187500
3.921875
4.078125
4.406250
4.875000
4.921875
4.765625
4.609375
4.671875
4.937500
5.281250
5.593750
5.703125
5.703125
5.562500
5.500000
5.437500
5.140625
4.796875
4.468750
4.390625
4.343750
4.328125
4.250000
4.109375
4.125000
4.187500
4.328125
4.375000
4.234375
3.984375
3.953125
4.109375
4.437500
4.437500
4.250000
4.015625
3.906250
3.906250
3.953125
4.015625
3.828125
3.921875
4.078125
5.156250
5.281250
2.578125
1.515625
0.375000
0.093750
0.093750
0.593750
1.265625
1.281250
1.281250
1.343750
1.390625
1.390625
1.093750
0.968750
1.078125
1.203125
1.250000
1.203125
1.218750
1.140625
1.234375
1.375000
1.375000
1.171875
1.109375
1.171875
1.281250
1.265625
1.296875
1.312500
1.234375
1.312500
1.312500
1.328125
1.390625
1.406250
1.421875
1.328125
1.250000
1.296875
1.375000
1.375000
1.359375
1.343750
1.375000
1.468750
1.578125
1.562500
1.484375
1.406250
1.453125
1.515625
1.609375
1.562500
1.437500
1.406250
1.578125
1.796875
1.921875
1.812500
1.609375
1.609375
1.687500
1.750000
1.781250
1.718750
1.671875
1.671875
1.734375
1.843750
1.609375
1.312500
1.359375
1.593750
2.140625
2.609375
2.703125
1.937500
0.750000
0.328125
0.218750
0.109375
0.031250
0.000000
0.000000
0.000000
0.046875
0.171875
0.703125
1.890625
2.171875
1.890625
1.921875
1.875000
1.828125
1.734375
1.796875
1.812500
1.718750
1.875000
1.953125
1.906250
1.796875
1.734375
1.875000
2.015625
2.062500
2.234375
2.281250
2.156250
2.171875
2.421875
2.593750
2.609375
2.406250
2.156250
2.093750
2.281250
2.625000
2.718750
2.656250
2.546875
2.578125
2.671875
2.718750
2.890625
3.062500
3.093750
3.093750
3.171875
3.218750
3.046875
2.953125
2.796875
2.734375
2.687500
2.687500
2.625000
2.531250
2.468750
2.453125
2.515625
2.640625
2.562500
2.343750
2.265625
2.296875
2.484375
2.578125
2.531250
2.359375
2.312500
2.375000
2.359375
2.421875
2.328125
2.125000
1.890625
2.500000
4.250000
3.125000
1.796875
0.750000
0.671875
0.843750
1.625000
1.703125
1.203125
1.171875
1.234375
1.343750
1.140625
0.890625
0.812500
1.125000
1.468750
1.437500
1.250000
1.203125
1.125000
1.281250
1.453125
1.500000
1.171875
1.031250
1.203125
1.390625
1.578125
1.531250
1.437500
1.390625
1.390625
1.406250
1.515625
1.500000
1.468750
1.296875
1.296875
1.312500
1.484375
1.640625
1.593750
1.500000
1.546875
1.578125
1.687500
1.796875
1.640625
1.546875
1.437500
1.546875
1.734375
1.765625
1.703125
1.609375
1.671875
1.890625
2.187500
2.093750
1.687500
1.453125
1.515625
1.828125
2.093750
2.015625
1.812500
1.656250
1.671875
1.750000
1.843750
1.765625
1.515625
1.656250
2.515625
2.750000
1.796875
0.078125
0.000000
0.000000
0.000000
0.000000
0.000000
0.312500
0.812500
3.203125
4.343750
2.343750
0.812500
1.578125
2.687500
2.562500
2.234375
2.031250
2.000000
1.937500
1.890625
2.156250
2.296875
2.343750
2.156250
2.203125
2.140625
2.046875
2.203125
2.500000
2.703125
2.750000
2.718750
2.609375
2.531250
2.593750
3.015625
3.078125
2.906250
2.500000
2.265625
2.609375
3.171875
3.468750
3.359375
2.921875
2.734375
2.937500
3.406250
3.750000
3.875000
3.984375
3.625000
3.453125
3.406250
3.421875
3.000000
2.562500
2.453125
2.515625
2.609375
2.593750
2.437500
2.453125
2.546875
2.640625
2.828125
2.859375
2.609375
2.375000
2.375000
2.718750
3.000000
2.984375
2.671875
2.281250
2.296875
2.484375
2.546875
2.484375
2.531250
2.484375
3.281250
3.234375
2.828125
1.890625
0.000000
0.140625
0.703125
1.578125
1.078125
0.062500
0.046875
0.000000
0.031250
0.000000
0.000000
0.000000
0.125000
0.281250
0.093750
0.156250
0.171875
0.140625
0.156250
0.125000
0.203125
0.093750
0.187500
0.250000
0.234375
0.171875
0.156250
0.234375
0.218750
0.125000
0.125000
0.093750
0.046875
0.109375
0.031250
0.093750
0.031250
0.093750
0.218750
0.171875
0.109375
0.171875
0.093750
0.093750
0.109375
0.015625
0.000000
0.000000
0.031250
0.046875
0.078125
0.015625
0.000000
0.000000
0.015625
0.046875
0.000000
0.000000
0.000000
0.000000
0.000000
0.000000
0.000000
0.000000
0.000000
0.000000
0.000000
0.000000
0.000000
0.000000
0.000000
0.093750
0.078125
0.203125
0.140625
0.000000
0.000000
0.296875
2.375000
4.843750
6.078125
6.796875
7.000000
6.765625
4.984375
3.859375
2.843750
1.281250
0.000000
0.000000
0.000000
0.000000
0.000000
0.000000
0.000000
0.031250
0.046875
0.031250
0.187500
0.000000
0.000000
0.000000
0.046875
0.078125
0.078125
0.000000
0.000000
0.000000
0.000000
0.000000
0.000000
0.000000
0.000000
0.000000
0.000000
0.000000
0.000000
0.000000
0.000000
0.000000
0.000000
0.000000
0.000000
0.000000
0.000000
0.000000
0.000000
0.000000
0.000000
0.000000
0.000000
0.000000
0.000000
0.000000
0.000000
0.000000
0.000000
0.000000
0.000000
0.000000
0.000000
0.000000
0.000000
0.000000
0.000000
0.000000
0.000000
0.000000
0.000000
0.000000
0.000000
0.000000
0.000000
0.000000
0.000000
0.000000
0.000000
0.234375
0.000000
0.000000
0.000000
0.000000
0.000000
0.156250
1.125000
0.406250
0.000000
0.000000
0.000000
0.000000
0.000000
0.000000
0.078125
0.062500
0.000000
0.000000
0.000000
0.031250
0.156250
0.000000
0.000000
0.000000
0.000000
0.140625
0.109375
0.000000
0.000000
0.000000
0.015625
0.078125
0.031250
0.062500
0.000000
0.000000
0.000000
0.000000
0.031250
0.000000
0.000000
0.046875
0.000000
0.046875
0.156250
0.062500
0.015625
0.000000
0.000000
0.000000
0.093750
0.093750
0.000000
0.000000
0.000000
0.156250
0.203125
0.140625
0.000000
0.000000
0.000000
0.078125
0.171875
0.000000
0.000000
0.000000
0.000000
0.093750
0.093750
0.000000
0.000000
0.000000
0.296875
0.468750
0.421875
0.000000
0.000000
0.000000
0.156250
0.609375
0.890625
0.859375
0.562500
2.031250
1.781250
0.750000
1.265625
2.609375
3.265625
2.484375
0.703125
0.000000
0.000000
0.000000
0.078125
0.031250
0.000000
0.000000
0.000000
0.046875
0.000000
0.078125
0.031250
0.078125
0.171875
0.125000
0.187500
0.093750
0.015625
0.281250
0.156250
0.250000
0.093750
0.000000
0.000000
0.000000
0.312500
0.343750
0.250000
0.015625
0.000000
0.203125
0.234375
0.234375
0.218750
0.140625
0.109375
0.234375
0.250000
0.156250
0.078125
0.000000
0.000000
0.031250
0.093750
0.000000
0.000000
0.000000
0.000000
0.000000
0.000000
0.000000
0.000000
0.000000
0.000000
0.078125
0.203125
0.109375
0.000000
0.000000
0.015625
0.078125
0.125000
0.093750
0.000000
0.000000
0.109375
0.375000
0.703125
0.000000
0.000000
0.000000
0.578125
