0.796875
0.656250
0.640625
0.640625
0.625000
0.609375
0.625000
0.625000
0.625000
0.625000
0.640625
0.656250
0.671875
0.671875
0.671875
0.671875
0.687500
0.734375
0.734375
0.734375
0.718750
0.703125
0.734375
0.750000
0.765625
0.765625
0.765625
0.750000
0.765625
0.765625
0.796875
0.796875
0.796875
0.812500
0.812500
0.843750
0.875000
0.875000
0.875000
0.859375
0.859375
0.890625
0.890625
0.890625
0.890625
0.890625
0.890625
0.921875
0.921875
0.921875
0.921875
0.921875
0.953125
0.953125
0.968750
0.968750
0.968750
0.921875
0.937500
0.968750
0.968750
0.968750
0.968750
0.953125
0.953125
0.968750
1.000000
1.000000
1.000000
1.062500
1.078125
1.078125
1.078125
0.921875
0.500000
0.000000
0.000000
0.000000
0.000000
0.640625
1.421875
1.578125
1.578125
1.578125
1.343750
1.187500
1.218750
1.218750
1.218750
1.234375
1.234375
1.265625
1.281250
1.328125
1.343750
1.359375
1.390625
1.406250
1.406250
1.421875
1.468750
1.500000
1.546875
1.546875
1.546875
1.546875
1.609375
1.609375
1.656250
1.656250
1.656250
1.656250
1.718750
1.781250
1.828125
1.828125
1.828125
1.812500
1.859375
1.906250
1.937500
1.953125
1.953125
1.953125
1.953125
1.937500
1.890625
1.890625
1.796875
1.734375
1.625000
1.578125
1.531250
1.515625
1.484375
1.437500
1.437500
1.437500
1.437500
1.437500
1.437500
1.437500
1.406250
1.453125
1.453125
1.453125
1.437500
1.406250
1.375000
1.390625
1.390625
1.406250
1.406250
1.406250
1.421875
1.437500
1.437500
1.437500
0.296875
0.218750
0.218750
0.000000
0.000000
0.000000
0.000000
0.000000
0.015625
0.015625
0.015625
0.000000
0.000000
0.000000
0.015625
0.015625
0.015625
0.000000
0.000000
0.000000
0.000000
0.000000
0.000000
0.000000
0.000000
0.000000
0.000000
0.000000
0.000000
0.000000
0.000000
0.000000
0.015625
0.015625
0.015625
0.015625
0.015625
0.015625
0.015625
0.000000
0.000000
0.000000
0.000000
0.000000
0.031250
0.031250
0.031250
0.031250
0.031250
0.031250
0.031250
0.015625
0.015625
0.000000
0.000000
0.015625
0.031250
0.031250
0.031250
0.015625
0.000000
0.015625
0.031250
0.031250
0.031250
0.031250
0.031250
0.031250
0.031250
0.031250
0.031250
0.015625
0.031250
0.078125
0.078125
0.078125
0.046875
0.000000
0.000000
0.000000
0.000000
0.000000
0.250000
0.390625
0.390625
0.390625
0.187500
0.031250
0.031250
0.046875
0.046875
0.046875
0.046875
0.046875
0.046875
0.046875
0.046875
0.046875
0.062500
0.062500
0.062500
0.062500
0.062500
0.078125
0.078125
0.078125
0.078125
0.078125
0.078125
0.078125
0.078125
0.078125
0.078125
0.078125
0.078125
0.078125
0.093750
0.109375
0.109375
0.109375
0.078125
0.078125
0.109375
0.109375
0.109375
0.093750
0.093750
0.093750
0.093750
0.093750
0.078125
0.062500
0.046875
0.046875
0.031250
0.062500
0.062500
0.062500
0.046875
0.062500
0.078125
0.078125
0.078125
0.062500
0.046875
0.046875
0.078125
0.078125
0.078125
0.062500
0.046875
0.062500
0.062500
0.062500
0.062500
0.046875
0.031250
0.046875
0.187500
0.187500
0.453125
0.875000
0.875000
0.875000
0.890625
0.890625
0.890625
0.875000
0.843750
0.875000
0.875000
0.875000
0.875000
0.906250
0.937500
0.953125
0.968750
0.968750
0.968750
0.968750
1.000000
1.015625
1.031250
1.031250
1.031250
1.046875
1.078125
1.109375
1.125000
1.125000
1.125000
1.125000
1.140625
1.140625
1.156250
1.171875
1.171875
1.203125
1.250000
1.250000
1.265625
1.265625
1.265625
1.281250
1.281250
1.328125
1.328125
1.328125
1.312500
1.343750
1.359375
1.375000
1.375000
1.375000
1.406250
1.421875
1.421875
1.421875
1.421875
1.421875
1.390625
1.421875
1.421875
1.421875
1.421875
1.421875
1.421875
1.421875
1.453125
1.468750
1.468750
1.531250
1.562500
1.578125
1.578125
1.578125
1.421875
0.937500
0.171875
0.000000
0.000000
0.000000
0.000000
1.031250
1.765625
1.937500
1.937500
1.937500
1.859375
1.875000
1.921875
1.921875
1.921875
1.937500
1.984375
2.015625
2.062500
2.093750
2.140625
2.171875
2.187500
2.234375
2.296875
2.343750
2.390625
2.437500
2.468750
2.468750
2.515625
2.515625
2.609375
2.625000
2.656250
2.671875
2.703125
2.750000
2.843750
2.890625
2.937500
2.953125
2.953125
3.000000
3.031250
3.140625
3.187500
3.218750
3.218750
3.218750
3.156250
3.140625
3.125000
3.031250
2.890625
2.765625
2.640625
2.562500
2.500000
2.421875
2.359375
2.312500
2.296875
2.296875
2.296875
2.296875
2.281250
2.281250
2.296875
2.296875
2.296875
2.296875
2.265625
2.203125
2.171875
2.203125
2.218750
2.218750
2.250000
2.265625
2.265625
2.265625
1.921875
1.218750
0.359375
0.218750
0.218750
0.218750
0.218750
0.218750
0.218750
0.218750
0.218750
0.218750
0.234375
0.250000
0.281250
0.281250
0.281250
0.265625
0.265625
0.265625
0.265625
0.265625
0.265625
0.250000
0.265625
0.281250
0.296875
0.296875
0.296875
0.281250
0.281250
0.296875
0.312500
0.312500
0.312500
0.312500
0.312500
0.312500
0.312500
0.328125
0.328125
0.328125
0.312500
0.328125
0.328125
0.328125
0.328125
0.328125
0.328125
0.343750
0.359375
0.359375
0.359375
0.343750
0.343750
0.359375
0.375000
0.375000
0.375000
0.359375
0.359375
0.343750
0.375000
0.375000
0.375000
0.375000
0.359375
0.375000
0.390625
0.390625
0.390625
0.406250
0.421875
0.421875
0.421875
0.390625
0.265625
0.000000
0.000000
0.000000
0.000000
0.109375
0.515625
0.750000
0.750000
0.750000
0.625000
0.453125
0.484375
0.484375
0.484375
0.484375
0.484375
0.484375
0.484375
0.515625
0.515625
0.515625
0.515625
0.531250
0.531250
0.546875
0.578125
0.593750
0.593750
0.593750
0.609375
0.609375
0.625000
0.640625
0.640625
0.656250
0.656250
0.656250
0.640625
0.671875
0.703125
0.734375
0.734375
0.734375
0.734375
0.765625
0.781250
0.781250
0.781250
0.781250
0.781250
0.765625
0.765625
0.750000
0.734375
0.703125
0.625000
0.609375
0.593750
0.578125
0.578125
0.578125
0.562500
0.562500
0.578125
0.578125
0.578125
0.562500
0.546875
0.578125
0.593750
0.593750
0.593750
0.531250
0.515625
0.500000
0.515625
0.531250
0.531250
0.531250
0.546875
0.546875
0.546875
0.546875
0.343750
0.093750
0.093750
0.109375
0.125000
0.125000
0.125000
0.125000
0.125000
0.109375
0.109375
0.125000
0.125000
0.125000
0.109375
0.125000
0.125000
0.125000
0.140625
0.140625
0.140625
0.109375
0.109375
0.109375
0.109375
0.109375
0.109375
0.109375
0.109375
0.109375
0.109375
0.109375
0.109375
0.125000
0.125000
0.125000
0.125000
0.125000
0.125000
0.093750
0.093750
0.093750
0.093750
0.093750
0.093750
0.109375
0.125000
0.125000
0.140625
0.140625
0.140625
0.109375
0.109375
0.109375
0.109375
0.109375
0.125000
0.125000
0.125000
0.125000
0.125000
0.125000
0.125000
0.125000
0.125000
0.125000
0.125000
0.125000
0.109375
0.140625
0.140625
0.140625
0.140625
0.109375
0.156250
0.234375
0.312500
0.328125
0.328125
0.328125
0.218750
0.109375
0.031250
0.000000
0.046875
0.171875
0.171875
0.171875
0.140625
0.125000
0.109375
0.109375
0.125000
0.125000
0.125000
0.125000
0.125000
0.140625
0.140625
0.140625
0.140625
0.140625
0.125000
0.125000
0.140625
0.140625
0.140625
0.156250
0.156250
0.156250
0.140625
0.156250
0.156250
0.156250
0.171875
0.171875
0.171875
0.125000
0.171875
0.171875
0.171875
0.171875
0.156250
0.156250
0.140625
0.156250
0.187500
0.187500
0.187500
0.187500
0.203125
0.203125
0.203125
0.171875
0.171875
0.171875
0.171875
0.171875
0.156250
0.140625
0.140625
0.140625
0.140625
0.140625
0.140625
0.125000
0.109375
0.140625
0.140625
0.140625
0.140625
0.156250
0.156250
0.156250
0.140625
0.140625
0.140625
0.140625
0.234375
0.546875
0.546875
0.546875
0.296875
0.109375
0.109375
0.109375
0.109375
0.109375
0.109375
0.109375
0.109375
0.109375
0.125000
0.125000
0.125000
0.125000
0.125000
0.125000
0.125000
0.140625
0.140625
0.140625
0.125000
0.093750
0.125000
0.156250
0.156250
0.156250
0.140625
0.125000
0.125000
0.140625
0.140625
0.140625
0.140625
0.140625
0.140625
0.140625
0.140625
0.140625
0.125000
0.125000
0.125000
0.156250
0.171875
0.171875
0.171875
0.156250
0.156250
0.156250
0.140625
0.140625
0.140625
0.140625
0.156250
0.171875
0.171875
0.171875
0.140625
0.125000
0.171875
0.171875
0.171875
0.171875
0.156250
0.140625
0.125000
0.171875
0.171875
0.171875
0.156250
0.171875
0.203125
0.203125
0.203125
0.078125
0.000000
0.000000
0.000000
0.000000
0.312500
0.812500
1.046875
1.046875
1.046875
0.734375
0.250000
0.218750
0.218750
0.218750
0.203125
0.187500
0.187500
0.187500
0.218750
0.218750
0.234375
0.234375
0.234375
0.234375
0.234375
0.234375
0.234375
0.234375
0.265625
0.265625
0.265625
0.250000
0.234375
0.265625
0.265625
0.265625
0.265625
0.250000
0.265625
0.312500
0.312500
0.312500
0.312500
0.296875
0.296875
0.328125
0.328125
0.328125
0.312500
0.312500
0.296875
0.250000
0.250000
0.234375
0.234375
0.171875
0.140625
0.171875
0.171875
0.171875
0.171875
0.171875
0.187500
0.218750
0.218750
0.218750
0.203125
0.187500
0.203125
0.234375
0.234375
0.234375
0.203125
0.187500
0.187500
0.203125
0.203125
0.218750
0.218750
0.218750
0.203125
0.203125
0.203125
0.203125
0.000000
0.000000
0.000000
0.000000
0.000000
0.000000
0.000000
0.000000
0.000000
0.000000
0.000000
0.000000
0.000000
0.000000
0.000000
0.000000
0.000000
0.000000
0.000000
0.000000
0.000000
0.000000
0.000000
0.000000
0.000000
0.000000
0.000000
0.000000
0.000000
0.000000
0.000000
0.000000
0.000000
0.000000
0.000000
0.000000
0.000000
0.000000
0.000000
0.000000
0.000000
0.000000
0.000000
0.000000
0.000000
0.000000
0.000000
0.000000
0.000000
0.000000
0.000000
0.000000
0.000000
0.000000
0.000000
0.000000
0.000000
0.000000
0.000000
0.000000
0.000000
0.000000
0.000000
0.000000
0.000000
0.000000
0.000000
0.000000
0.000000
0.000000
0.000000
0.000000
0.000000
0.000000
0.000000
0.000000
0.000000
0.156250
1.062500
1.656250
1.796875
1.796875
1.796875
1.500000
0.765625
0.000000
0.000000
0.000000
0.000000
0.000000
0.000000
0.000000
0.000000
0.000000
0.000000
0.000000
0.000000
0.000000
0.000000
0.000000
0.000000
0.000000
0.000000
0.000000
0.000000
0.000000
0.000000
0.000000
0.000000
0.000000
0.000000
0.000000
0.000000
0.000000
0.000000
0.000000
0.000000
0.000000
0.000000
0.000000
0.000000
0.000000
0.000000
0.000000
0.000000
0.000000
0.000000
0.000000
0.000000
0.000000
0.000000
0.000000
0.000000
0.000000
0.000000
0.000000
0.000000
0.000000
0.000000
0.000000
0.000000
0.000000
0.000000
0.000000
0.000000
0.000000
0.000000
0.000000
0.000000
0.000000
0.000000
0.000000
0.000000
0.000000
0.000000
0.000000
0.000000
0.000000
0.000000
0.000000
0.000000
0.000000
0.000000
0.000000
0.000000
0.000000
0.000000
0.000000
0.000000
0.000000
0.000000
0.000000
0.000000
0.000000
0.000000
0.000000
0.000000
0.000000
0.000000
0.000000
0.000000
0.000000
0.000000
0.000000
0.000000
0.000000
0.000000
0.000000
0.000000
0.000000
0.000000
0.000000
0.000000
0.000000
0.000000
0.000000
0.000000
0.000000
0.000000
0.000000
0.000000
0.000000
0.000000
0.000000
0.000000
0.000000
0.000000
0.000000
0.000000
0.000000
0.000000
0.000000
0.000000
0.000000
0.000000
0.000000
0.000000
0.000000
0.000000
0.000000
0.000000
0.000000
0.000000
0.000000
0.000000
0.000000
0.000000
0.000000
0.000000
0.000000
0.000000
0.000000
0.000000
0.000000
0.000000
0.156250
0.609375
0.890625
0.890625
0.890625
0.859375
0.562500
0.140625
0.000000
0.000000
0.000000
0.000000
0.000000
0.000000
0.000000
0.000000
0.000000
0.000000
0.000000
0.000000
0.000000
0.000000
0.000000
0.000000
0.000000
0.000000
0.000000
0.000000
0.000000
0.000000
0.000000
0.000000
0.000000
0.000000
0.000000
0.000000
0.000000
0.000000
0.000000
0.000000
0.000000
0.000000
0.000000
0.000000
0.000000
0.000000
0.000000
0.000000
0.000000
0.000000
0.000000
0.000000
0.000000
0.000000
0.000000
0.000000
0.000000
0.000000
0.000000
0.000000
0.000000
0.000000
0.000000
0.000000
0.000000
0.000000
0.000000
0.000000
0.000000
0.000000
0.000000
0.000000
0.000000
0.000000
0.000000
0.000000
0.000000
0.000000
0.000000
0.000000
0.000000
0.000000
0.000000
0.000000
0.578125
0.796875
0.796875
