0.187500
0.187500
0.187500
0.171875
0.171875
0.156250
0.171875
0.171875
0.171875
0.171875
0.171875
0.171875
0.156250
0.156250
0.156250
0.171875
0.187500
0.187500
0.203125
0.203125
0.203125
0.203125
0.203125
0.203125
0.203125
0.203125
0.203125
0.203125
0.203125
0.203125
0.203125
0.203125
0.203125
0.203125
0.218750
0.218750
0.234375
0.234375
0.234375
0.234375
0.250000
0.250000
0.250000
0.218750
0.218750
0.218750
0.218750
0.218750
0.218750
0.218750
0.234375
0.250000
0.250000
0.250000
0.218750
0.218750
0.218750
0.218750
0.234375
0.234375
0.234375
0.218750
0.218750
0.218750
0.203125
0.218750
0.218750
0.218750
0.250000
0.250000
0.250000
0.218750
0.218750
0.187500
0.062500
0.000000
0.000000
0.000000
0.000000
0.109375
0.109375
0.109375
0.078125
0.156250
0.203125
0.250000
0.250000
0.265625
0.265625
0.265625
0.265625
0.265625
0.281250
0.296875
0.296875
0.312500
0.312500
0.312500
0.296875
0.312500
0.312500
0.312500
0.312500
0.312500
0.312500
0.312500
0.296875
0.343750
0.343750
0.343750
0.312500
0.343750
0.343750
0.343750
0.328125
0.328125
0.328125
0.312500
0.328125
0.359375
0.359375
0.359375
0.359375
0.359375
0.343750
0.343750
0.343750
0.343750
0.343750
0.281250
0.281250
0.281250
0.281250
0.281250
0.281250
0.265625
0.296875
0.296875
0.296875
0.281250
0.296875
0.296875
0.296875
0.296875
0.296875
0.281250
0.281250
0.281250
0.312500
0.312500
0.312500
0.296875
0.281250
0.296875
0.312500
0.312500
0.312500
0.203125
0.000000
0.000000
0.406250
0.421875
0.421875
0.421875
0.421875
0.421875
0.406250
0.390625
0.406250
0.406250
0.437500
0.437500
0.437500
0.453125
0.468750
0.468750
0.468750
0.468750
0.500000
0.500000
0.500000
0.500000
0.515625
0.531250
0.546875
0.562500
0.562500
0.562500
0.562500
0.562500
0.562500
0.562500
0.562500
0.562500
0.578125
0.593750
0.609375
0.625000
0.625000
0.640625
0.640625
0.640625
0.640625
0.640625
0.640625
0.640625
0.625000
0.625000
0.656250
0.656250
0.671875
0.687500
0.703125
0.703125
0.703125
0.703125
0.703125
0.687500
0.703125
0.703125
0.703125
0.703125
0.703125
0.687500
0.703125
0.718750
0.718750
0.718750
0.750000
0.765625
0.765625
0.765625
0.734375
0.718750
0.625000
0.765625
1.203125
1.453125
1.625000
1.625000
1.750000
1.750000
1.750000
1.468750
0.937500
0.937500
0.937500
0.937500
0.937500
0.937500
0.953125
0.968750
1.000000
1.031250
1.031250
1.046875
1.062500
1.078125
1.109375
1.140625
1.156250
1.156250
1.171875
1.187500
1.187500
1.218750
1.218750
1.281250
1.281250
1.296875
1.312500
1.312500
1.359375
1.390625
1.437500
1.437500
1.437500
1.437500
1.468750
1.484375
1.546875
1.578125
1.609375
1.609375
1.609375
1.562500
1.562500
1.531250
1.531250
1.531250
1.468750
1.406250
1.359375
1.312500
1.234375
1.218750
1.171875
1.171875
1.140625
1.093750
1.125000
1.125000
1.140625
1.140625
1.140625
1.125000
1.125000
1.125000
1.125000
1.125000
1.078125
1.078125
1.093750
1.125000
1.125000
1.125000
1.125000
0.968750
0.718750
0.312500
1.593750
1.593750
1.593750
1.437500
1.421875
1.390625
1.390625
1.359375
1.375000
1.406250
1.406250
1.406250
1.437500
1.531250
1.531250
1.531250
1.531250
1.515625
1.531250
1.625000
1.625000
1.625000
1.562500
1.593750
1.656250
1.718750
1.718750
1.718750
1.718750
1.687500
1.687500
1.765625
1.781250
1.781250
1.828125
1.828125
1.828125
1.921875
1.937500
1.937500
1.937500
1.937500
1.937500
1.968750
1.984375
1.984375
1.984375
1.984375
2.015625
2.109375
2.125000
2.125000
2.125000
2.093750
2.140625
2.218750
2.218750
2.218750
2.156250
2.062500
2.140625
2.203125
2.203125
2.203125
2.187500
2.140625
2.171875
2.265625
2.265625
2.265625
2.234375
2.453125
2.562500
2.562500
2.562500
2.296875
1.234375
0.265625
0.000000
0.000000
0.250000
1.937500
3.328125
3.625000
3.625000
3.625000
2.953125
2.734375
2.812500
2.812500
2.828125
2.828125
2.828125
2.890625
3.031250
3.062500
3.062500
3.125000
3.140625
3.203125
3.203125
3.296875
3.468750
3.468750
3.546875
3.609375
3.609375
3.609375
3.656250
3.781250
3.828125
3.828125
3.828125
3.812500
3.968750
4.093750
4.250000
4.250000
4.250000
4.234375
4.296875
4.437500
4.515625
4.578125
4.578125
4.578125
4.546875
4.437500
4.406250
4.390625
4.218750
3.953125
3.750000
3.625000
3.546875
3.500000
3.375000
3.312500
3.296875
3.343750
3.343750
3.343750
3.343750
3.250000
3.281250
3.406250
3.406250
3.406250
3.359375
3.187500
3.125000
3.125000
3.203125
3.203125
3.203125
3.218750
3.703125
3.703125
3.703125
3.296875
0.750000
0.750000
0.640625
0.390625
0.359375
0.328125
0.359375
0.375000
0.375000
0.375000
0.375000
0.406250
0.484375
0.484375
0.484375
0.453125
0.437500
0.421875
0.468750
0.468750
0.468750
0.468750
0.437500
0.468750
0.484375
0.484375
0.484375
0.468750
0.421875
0.453125
0.453125
0.468750
0.468750
0.468750
0.453125
0.484375
0.515625
0.531250
0.531250
0.531250
0.500000
0.484375
0.500000
0.531250
0.531250
0.531250
0.515625
0.515625
0.546875
0.546875
0.546875
0.546875
0.515625
0.546875
0.546875
0.546875
0.546875
0.531250
0.468750
0.531250
0.562500
0.562500
0.562500
0.562500
0.531250
0.546875
0.593750
0.593750
0.593750
0.562500
0.578125
0.578125
0.578125
0.578125
0.328125
0.000000
0.000000
0.000000
0.000000
0.921875
2.046875
2.687500
2.687500
2.687500
2.343750
1.312500
0.625000
0.703125
0.703125
0.703125
0.671875
0.671875
0.687500
0.718750
0.750000
0.750000
0.750000
0.718750
0.718750
0.718750
0.750000
0.828125
0.843750
0.843750
0.843750
0.812500
0.796875
0.796875
0.828125
0.859375
0.859375
0.859375
0.859375
0.812500
0.921875
0.968750
0.968750
0.968750
0.906250
0.890625
1.000000
1.031250
1.031250
1.031250
1.000000
0.937500
0.859375
0.796875
0.796875
0.687500
0.578125
0.515625
0.531250
0.531250
0.531250
0.562500
0.609375
0.671875
0.703125
0.734375
0.734375
0.734375
0.656250
0.703125
0.781250
0.781250
0.781250
0.734375
0.625000
0.625000
0.640625
0.656250
0.656250
0.656250
0.656250
0.703125
0.703125
0.703125
0.250000
0.000000
1.406250
2.515625
2.515625
2.515625
2.125000
2.078125
2.062500
2.031250
2.046875
2.078125
2.078125
2.078125
2.078125
2.250000
2.296875
2.328125
2.328125
2.328125
2.328125
2.359375
2.421875
2.421875
2.421875
2.421875
2.484375
2.546875
2.578125
2.593750
2.593750
2.593750
2.609375
2.687500
2.703125
2.750000
2.750000
2.765625
2.828125
2.921875
2.968750
3.000000
3.000000
3.000000
3.031250
3.062500
3.062500
3.062500
3.078125
3.078125
3.125000
3.156250
3.234375
3.250000
3.265625
3.265625
3.281250
3.328125
3.375000
3.375000
3.375000
3.281250
3.281250
3.328125
3.421875
3.421875
3.421875
3.343750
3.343750
3.421875
3.500000
3.500000
3.500000
3.484375
3.484375
3.484375
3.468750
3.187500
2.328125
1.140625
0.000000
0.000000
0.515625
2.000000
3.640625
5.109375
5.156250
5.156250
5.156250
4.593750
4.312500
4.390625
4.437500
4.437500
4.468750
4.515625
4.640625
4.750000
4.875000
4.906250
4.921875
5.062500
5.078125
5.234375
5.343750
5.453125
5.609375
5.609375
5.656250
5.750000
5.750000
5.906250
5.984375
6.062500
6.062500
6.078125
6.234375
6.359375
6.640625
6.656250
6.718750
6.718750
6.750000
6.968750
7.078125
7.187500
7.187500
7.187500
7.187500
7.140625
7.000000
6.875000
6.718750
6.421875
6.109375
5.796875
5.640625
5.500000
5.390625
5.281250
5.203125
5.203125
5.250000
5.250000
5.250000
5.218750
5.125000
5.250000
5.250000
5.250000
5.218750
5.187500
5.000000
4.921875
4.984375
5.000000
5.078125
5.078125
5.078125
4.937500
4.937500
4.140625
0.000000
0.000000
0.000000
0.000000
0.000000
0.000000
0.000000
0.000000
0.000000
0.000000
0.000000
0.000000
0.000000
0.000000
0.000000
0.000000
0.000000
0.000000
0.000000
0.000000
0.000000
0.000000
0.000000
0.000000
0.000000
0.000000
0.000000
0.000000
0.000000
0.000000
0.000000
0.000000
0.000000
0.000000
0.000000
0.000000
0.000000
0.000000
0.000000
0.000000
0.000000
0.000000
0.000000
0.000000
0.000000
0.000000
0.000000
0.000000
0.000000
0.000000
0.000000
0.000000
0.000000
0.000000
0.000000
0.000000
0.000000
0.000000
0.000000
0.000000
0.000000
0.000000
0.000000
0.000000
0.000000
0.000000
0.000000
0.000000
0.000000
0.000000
0.000000
0.000000
0.000000
0.484375
1.250000
1.812500
1.906250
1.906250
1.906250
1.875000
0.953125
0.000000
0.000000
0.000000
0.000000
0.000000
0.000000
0.000000
0.000000
0.000000
0.000000
0.000000
0.000000
0.000000
0.000000
0.000000
0.000000
0.000000
0.000000
0.000000
0.000000
0.000000
0.000000
0.000000
0.000000
0.000000
0.000000
0.000000
0.000000
0.000000
0.000000
0.000000
0.000000
0.000000
0.000000
0.000000
0.000000
0.000000
0.000000
0.000000
0.000000
0.000000
0.000000
0.000000
0.000000
0.000000
0.000000
0.000000
0.000000
0.000000
0.000000
0.000000
0.000000
0.000000
0.000000
0.000000
0.000000
0.000000
0.000000
0.000000
0.000000
0.000000
0.000000
0.000000
0.000000
0.000000
0.000000
0.000000
0.000000
0.000000
0.000000
0.000000
0.000000
0.000000
0.000000
0.000000
0.000000
0.906250
1.593750
1.593750
0.000000
0.046875
0.265625
0.296875
0.296875
0.296875
0.265625
0.265625
0.265625
0.218750
0.296875
0.296875
0.296875
0.265625
0.250000
0.296875
0.296875
0.296875
0.281250
0.281250
0.281250
0.312500
0.312500
0.312500
0.296875
0.265625
0.265625
0.312500
0.312500
0.312500
0.343750
0.343750
0.343750
0.390625
0.390625
0.390625
0.421875
0.421875
0.421875
0.406250
0.406250
0.421875
0.421875
0.437500
0.437500
0.453125
0.453125
0.453125
0.453125
0.453125
0.421875
0.484375
0.500000
0.500000
0.500000
0.468750
0.453125
0.546875
0.546875
0.546875
0.500000
0.437500
0.468750
0.500000
0.500000
0.500000
0.500000
0.500000
0.500000
0.578125
0.578125
0.578125
0.484375
0.343750
0.703125
0.703125
0.703125
0.515625
0.000000
0.000000
0.406250
0.406250
0.406250
0.359375
0.843750
1.015625
1.015625
1.015625
0.703125
0.687500
0.687500
0.687500
0.687500
0.718750
0.718750
0.718750
0.796875
0.796875
0.796875
0.765625
0.781250
0.859375
0.859375
0.859375
0.890625
0.890625
0.953125
0.953125
0.953125
0.906250
0.906250
0.968750
0.984375
1.046875
1.046875
1.046875
1.031250
1.031250
1.125000
1.125000
1.125000
1.109375
1.109375
1.140625
1.156250
1.234375
1.234375
1.234375
1.187500
1.140625
1.140625
1.140625
1.046875
1.046875
0.921875
0.906250
0.890625
0.875000
0.859375
0.859375
0.828125
0.843750
0.906250
0.906250
0.906250
0.828125
0.828125
0.906250
0.906250
0.906250
0.843750
0.812500
0.812500
0.812500
0.859375
0.859375
0.859375
0.812500
1.484375
1.484375
1.218750
1.218750
1.218750
0.781250
0.046875
0.078125
0.078125
0.078125
0.093750
0.156250
0.234375
0.234375
0.234375
0.156250
0.156250
0.156250
0.156250
0.156250
0.140625
0.140625
0.156250
0.156250
0.156250
0.156250
0.125000
0.156250
0.156250
0.156250
0.125000
0.125000
0.125000
0.109375
0.140625
0.140625
0.171875
0.218750
0.218750
0.218750
0.171875
0.171875
0.171875
0.140625
0.140625
0.140625
0.078125
0.125000
0.187500
0.187500
0.187500
0.156250
0.156250
0.156250
0.140625
0.140625
0.140625
0.046875
0.031250
0.062500
0.062500
0.062500
0.062500
0.093750
0.093750
0.093750
0.093750
0.093750
0.093750
0.203125
0.312500
0.312500
0.312500
0.171875
0.000000
0.000000
0.000000
0.000000
0.000000
0.187500
1.343750
2.218750
2.218750
2.218750
2.281250
2.281250
2.281250
2.250000
1.406250
0.312500
0.171875
0.171875
0.171875
0.281250
0.281250
0.281250
0.265625
0.281250
0.281250
0.281250
0.265625
0.359375
0.359375
0.359375
0.328125
0.296875
0.296875
0.250000
0.281250
0.281250
0.281250
0.187500
0.156250
0.281250
0.328125
0.343750
0.343750
0.343750
0.234375
0.296875
0.296875
0.296875
0.281250
0.250000
0.187500
0.187500
0.078125
0.000000
0.000000
0.000000
0.000000
0.000000
0.000000
0.000000
0.000000
0.000000
0.000000
0.000000
0.000000
0.000000
0.000000
0.000000
0.000000
0.046875
0.046875
0.046875
0.031250
0.000000
0.000000
0.000000
0.000000
0.000000
0.000000
0.000000
0.031250
0.125000
0.125000
0.125000
0.000000
0.000000
0.000000
0.000000
