9.375000
11.296875
13.000000
10.890625
7.500000
6.031250
5.500000
5.671875
5.625000
5.765625
6.187500
6.718750
7.296875
7.031250
13.203125
3.875000
5.203125
0.000000
0.000000
0.000000
4.781250
14.390625
21.265625
29.984375
28.390625
16.265625
10.359375
8.531250
5.031250
12.187500
17.656250
23.734375
25.671875
17.250000
18.171875
21.890625
21.265625
25.046875
9.750000
5.562500
4.875000
3.203125
2.937500
3.046875
2.015625
2.625000
2.062500
2.078125
1.890625
3.296875
3.750000
2.640625
2.921875
5.390625
15.109375
26.437500
27.390625
18.781250
12.406250
9.000000
22.890625
14.515625
9.296875
0.937500
6.843750
0.453125
0.000000
0.000000
7.203125
1.109375
0.000000
0.000000
0.000000
1.234375
5.078125
12.593750
8.640625
3.312500
0.765625
0.000000
0.000000
0.000000
0.000000
0.000000
0.000000
0.000000
0.000000
0.000000
0.000000
0.000000
0.000000
0.000000
0.000000
0.000000
0.000000
0.000000
0.000000
2.625000
21.437500
44.546875
48.281250
45.437500
40.078125
26.750000
13.796875
7.140625
0.000000
0.000000
0.015625
0.000000
0.000000
0.000000
0.000000
0.000000
0.000000
0.000000
0.000000
0.000000
0.000000
0.000000
2.562500
2.812500
1.390625
0.000000
0.000000
0.000000
0.000000
0.000000
0.000000
0.000000
0.000000
0.000000
0.000000
0.000000
0.000000
0.000000
0.000000
0.000000
0.000000
0.000000
0.000000
5.578125
10.093750
14.703125
7.765625
0.000000
0.000000
0.250000
0.000000
12.562500
20.765625
16.781250
4.000000
0.000000
0.000000
0.000000
0.000000
0.000000
0.000000
0.000000
0.000000
0.000000
0.000000
3.312500
7.531250
9.140625
10.328125
10.109375
10.859375
11.937500
11.421875
10.703125
11.296875
14.468750
13.843750
0.000000
0.000000
0.000000
0.000000
0.000000
0.000000
0.000000
0.000000
0.000000
1.546875
1.656250
2.656250
3.812500
0.000000
0.000000
0.000000
0.000000
2.093750
10.703125
16.000000
10.078125
0.000000
0.078125
0.000000
0.000000
0.000000
0.000000
0.000000
0.000000
0.000000
0.000000
0.000000
0.000000
0.000000
0.000000
0.000000
0.000000
0.000000
0.000000
0.000000
0.000000
0.000000
0.000000
0.000000
0.000000
0.000000
0.000000
0.000000
0.000000
0.000000
0.000000
0.000000
0.000000
0.000000
0.000000
0.000000
0.000000
0.000000
0.000000
0.000000
0.000000
0.000000
0.000000
0.000000
0.000000
0.000000
0.000000
0.000000
0.000000
0.000000
0.000000
0.000000
0.000000
0.000000
0.000000
0.000000
0.000000
0.000000
0.000000
0.000000
0.000000
0.000000
0.000000
0.000000
0.000000
0.000000
0.000000
0.000000
0.000000
0.000000
0.000000
0.000000
0.000000
0.000000
0.000000
0.000000
0.000000
0.000000
0.000000
0.000000
0.000000
0.000000
0.000000
0.000000
0.000000
5.109375
8.187500
9.031250
8.468750
7.078125
6.156250
7.078125
7.078125
7.234375
7.953125
7.718750
8.046875
7.968750
9.078125
14.296875
19.203125
24.671875
30.593750
39.843750
49.796875
52.765625
49.765625
38.703125
28.078125
20.656250
12.140625
8.937500
9.750000
9.812500
8.937500
13.046875
13.671875
14.593750
10.843750
12.312500
19.500000
19.796875
21.296875
25.843750
19.390625
8.593750
1.890625
3.328125
8.562500
8.765625
12.937500
13.734375
14.078125
16.031250
15.546875
15.234375
17.484375
17.890625
21.375000
31.125000
34.312500
49.187500
47.062500
67.765625
56.750000
46.281250
20.703125
17.515625
0.000000
0.000000
2.046875
4.281250
14.156250
18.000000
18.578125
12.640625
4.218750
19.765625
34.890625
38.312500
35.296875
35.921875
29.015625
13.187500
36.062500
1.000000
1.593750
0.656250
5.875000
5.031250
1.125000
0.000000
0.000000
0.000000
0.000000
0.000000
0.000000
0.000000
0.000000
0.000000
0.000000
0.000000
0.000000
0.000000
0.000000
0.000000
0.000000
0.000000
0.000000
0.000000
0.000000
0.000000
0.000000
0.000000
0.000000
0.000000
0.000000
0.000000
0.000000
0.000000
0.000000
0.000000
0.000000
0.000000
7.984375
0.000000
0.000000
0.000000
0.000000
0.000000
0.000000
0.000000
0.000000
0.000000
0.000000
0.000000
0.000000
0.000000
0.000000
0.000000
0.000000
0.000000
0.000000
0.000000
0.000000
0.000000
0.000000
0.000000
0.000000
0.000000
0.000000
0.000000
0.000000
0.000000
0.000000
0.000000
0.000000
0.000000
0.000000
0.000000
0.000000
0.000000
0.000000
0.000000
24.578125
3.734375
3.453125
7.187500
2.734375
0.000000
0.000000
1.765625
3.015625
2.578125
1.296875
1.625000
3.250000
2.437500
0.953125
0.000000
0.000000
1.796875
0.000000
0.000000
0.000000
1.437500
9.937500
13.953125
0.000000
0.000000
0.000000
0.000000
0.781250
0.000000
1.625000
1.562500
0.000000
0.000000
0.000000
0.000000
0.000000
0.000000
17.468750
21.703125
21.031250
8.031250
12.750000
14.703125
6.937500
0.000000
0.000000
0.000000
0.000000
0.000000
0.000000
0.000000
0.000000
0.000000
0.000000
0.000000
0.000000
0.000000
0.000000
10.187500
28.250000
28.843750
47.125000
50.625000
50.812500
42.890625
15.593750
8.796875
3.671875
3.640625
19.890625
21.796875
8.078125
0.000000
0.000000
0.000000
0.000000
3.859375
22.156250
0.000000
0.000000
1.343750
0.000000
0.000000
9.250000
12.296875
12.718750
9.687500
10.640625
13.109375
12.375000
10.218750
10.515625
11.781250
16.046875
21.578125
0.000000
0.000000
0.000000
0.000000
0.000000
0.000000
0.000000
0.000000
0.000000
0.000000
0.000000
0.000000
2.171875
0.000000
0.000000
0.000000
0.000000
11.140625
20.546875
13.921875
5.140625
0.000000
0.000000
0.000000
37.640625
11.265625
8.312500
2.046875
0.828125
0.000000
0.000000
0.000000
0.000000
0.000000
0.000000
0.000000
0.000000
0.000000
0.000000
0.000000
0.000000
0.000000
3.546875
8.781250
20.890625
38.328125
34.734375
40.390625
47.500000
19.218750
8.000000
8.718750
7.578125
10.078125
21.828125
12.859375
0.000000
0.000000
0.000000
0.000000
0.000000
6.593750
0.000000
0.000000
6.671875
7.062500
6.140625
4.203125
0.843750
3.171875
7.937500
8.718750
9.046875
10.046875
11.484375
13.875000
14.031250
13.515625
17.125000
30.687500
15.718750
10.062500
0.000000
0.000000
0.000000
0.000000
0.000000
0.000000
0.000000
0.000000
0.000000
4.109375
14.968750
16.953125
13.921875
17.046875
15.281250
3.281250
0.000000
0.000000
20.078125
9.437500
0.000000
0.000000
0.000000
4.718750
2.687500
5.281250
9.687500
7.203125
9.390625
8.906250
11.484375
13.078125
12.531250
13.343750
14.843750
16.765625
29.078125
19.906250
30.375000
35.171875
32.812500
37.156250
29.609375
0.000000
7.671875
6.281250
2.031250
14.437500
18.218750
18.953125
23.593750
36.500000
38.078125
16.765625
4.750000
14.546875
25.906250
34.140625
31.421875
28.734375
4.437500
10.640625
10.062500
4.250000
0.000000
0.000000
0.000000
0.000000
0.406250
2.671875
4.687500
7.234375
8.281250
8.218750
8.906250
9.500000
15.281250
14.218750
16.812500
1.296875
6.531250
31.484375
32.937500
35.937500
36.468750
27.515625
15.593750
0.000000
3.156250
0.140625
0.203125
10.609375
3.265625
0.000000
0.000000
0.875000
12.531250
24.093750
26.468750
15.953125
0.000000
0.000000
0.000000
0.000000
0.000000
0.000000
0.000000
0.000000
0.000000
0.000000
0.000000
0.000000
0.000000
0.000000
0.000000
0.000000
0.000000
0.000000
0.000000
0.000000
0.000000
0.000000
0.000000
0.468750
0.000000
0.000000
0.000000
0.000000
0.000000
0.000000
0.000000
0.000000
0.000000
0.000000
0.000000
0.000000
0.000000
0.000000
0.000000
0.000000
0.000000
0.000000
0.000000
7.546875
12.500000
15.703125
17.187500
17.343750
14.968750
10.156250
8.203125
7.234375
6.781250
7.718750
7.687500
7.328125
5.906250
0.000000
0.000000
0.000000
0.000000
0.000000
0.000000
43.062500
56.171875
76.890625
72.312500
68.953125
55.578125
38.781250
26.187500
13.250000
14.406250
22.656250
30.234375
28.843750
23.343750
25.125000
19.078125
12.828125
16.328125
24.156250
34.765625
0.000000
0.000000
4.750000
2.140625
2.609375
0.000000
0.000000
0.000000
0.000000
0.000000
0.000000
0.000000
0.000000
0.000000
0.000000
0.000000
0.000000
0.000000
0.000000
0.000000
0.000000
34.765625
25.375000
20.421875
31.093750
12.437500
2.406250
0.000000
0.000000
0.000000
0.000000
0.000000
0.000000
0.000000
0.000000
0.000000
0.000000
7.000000
33.734375
8.203125
2.093750
2.828125
0.000000
0.000000
0.000000
0.000000
0.000000
0.000000
0.000000
0.000000
0.000000
0.000000
0.000000
0.000000
1.734375
8.937500
22.937500
12.046875
19.046875
19.203125
7.656250
0.000000
0.000000
0.000000
0.000000
0.000000
0.000000
7.234375
13.281250
13.968750
6.953125
2.625000
0.000000
0.000000
0.234375
2.906250
0.000000
0.000000
0.000000
0.000000
11.625000
4.812500
7.906250
2.359375
1.000000
3.703125
0.000000
0.000000
0.000000
0.000000
0.000000
0.000000
0.000000
12.265625
2.328125
0.000000
0.000000
0.000000
0.000000
0.000000
0.000000
0.000000
0.000000
0.000000
20.890625
16.562500
17.328125
22.781250
23.843750
23.765625
0.000000
0.000000
0.000000
0.000000
0.000000
0.000000
0.000000
0.000000
0.000000
0.000000
12.171875
14.156250
10.640625
0.000000
0.000000
0.000000
0.000000
0.000000
0.000000
0.000000
0.000000
0.000000
0.000000
0.000000
0.000000
0.000000
0.000000
0.000000
0.000000
0.000000
23.765625
58.421875
61.796875
67.765625
60.875000
40.968750
19.343750
1.375000
4.187500
16.015625
5.078125
0.000000
0.000000
0.000000
0.000000
0.000000
0.000000
0.000000
0.000000
0.000000
1.000000
0.000000
0.000000
0.546875
0.250000
0.000000
0.000000
0.000000
0.000000
0.000000
0.000000
0.000000
3.843750
21.671875
12.687500
34.500000
23.203125
48.265625
55.812500
41.437500
48.812500
45.906250
34.156250
34.953125
39.625000
29.343750
27.312500
17.890625
4.546875
0.000000
0.000000
0.000000
0.000000
21.031250
34.656250
0.000000
0.000000
0.000000
0.000000
0.000000
14.718750
16.703125
25.906250
29.968750
30.625000
21.328125
16.953125
20.921875
25.437500
27.312500
29.031250
28.453125
26.359375
20.546875
15.093750
0.000000
0.000000
0.000000
0.000000
0.000000
0.000000
0.000000
13.281250
17.796875
41.609375
12.140625
36.984375
44.015625
43.890625
50.546875
49.578125
56.796875
66.062500
54.343750
30.968750
26.406250
26.171875
18.125000
31.859375
36.984375
1.265625
0.000000
0.000000
0.000000
0.000000
0.000000
0.000000
0.000000
0.000000
0.000000
0.000000
0.000000
0.000000
0.000000
0.000000
19.796875
21.875000
33.968750
38.562500
40.984375
53.171875
42.640625
44.515625
40.171875
13.750000
21.968750
20.296875
1.765625
0.000000
0.000000
0.000000
0.000000
0.000000
0.000000
4.390625
0.000000
0.000000
0.000000
1.937500
30.437500
9.703125
12.296875
18.015625
18.156250
14.062500
3.859375
0.000000
0.000000
0.000000
0.000000
0.000000
0.000000
0.000000
3.234375
13.078125
11.000000
25.500000
34.734375
37.937500
45.328125
20.109375
72.250000
57.625000
57.921875
67.296875
60.718750
59.203125
36.828125
18.203125
2.125000
0.593750
0.000000
3.921875
8.578125
0.000000
0.000000
0.000000
0.000000
0.000000
0.000000
0.000000
0.000000
0.000000
0.000000
0.000000
0.000000
4.703125
11.312500
16.375000
18.468750
17.437500
18.359375
34.609375
39.968750
33.328125
39.171875
31.906250
45.593750
63.828125
51.656250
53.265625
18.234375
5.437500
0.531250
0.000000
0.000000
0.765625
11.359375
9.328125
3.078125
0.000000
9.546875
26.140625
49.468750
52.609375
19.125000
0.000000
0.000000
5.843750
25.109375
8.093750
3.843750
7.203125
4.500000
7.656250
9.234375
13.609375
21.859375
26.843750
27.640625
29.843750
32.437500
42.656250
43.031250
43.671875
21.031250
0.187500
0.000000
0.000000
0.000000
0.000000
0.000000
5.609375
0.000000
0.000000
0.000000
0.000000
17.109375
23.125000
18.093750
4.031250
8.546875
25.093750
32.937500
40.000000
29.796875
2.562500
0.000000
0.000000
4.125000
3.640625
3.250000
3.046875
2.328125
4.156250
10.843750
13.218750
10.390625
10.531250
11.015625
12.125000
10.296875
0.156250
7.109375
14.796875
29.328125
30.171875
27.187500
10.046875
19.343750
0.000000
8.000000
12.000000
0.000000
9.515625
0.093750
0.218750
12.671875
16.906250
22.296875
25.312500
18.093750
13.765625
6.375000
25.109375
46.984375
56.468750
30.687500
15.250000
8.296875
0.000000
0.000000
0.000000
2.437500
4.000000
3.453125
5.937500
11.250000
13.828125
14.593750
13.640625
13.406250
7.937500
24.453125
14.578125
63.609375
59.484375
79.968750
69.359375
68.828125
69.625000
11.125000
0.000000
0.000000
0.000000
0.000000
0.000000
0.000000
0.000000
0.000000
10.890625
14.562500
5.812500
2.921875
5.046875
0.000000
44.328125
54.453125
67.000000
60.281250
