0.593750
0.843750
2.703125
2.578125
1.468750
1.156250
1.187500
1.203125
1.156250
1.187500
1.281250
1.218750
1.187500
1.296875
1.421875
1.406250
1.375000
1.343750
1.343750
1.437500
1.437500
1.437500
1.546875
1.578125
1.671875
1.843750
1.921875
1.890625
2.312500
2.281250
2.218750
2.015625
1.937500
2.078125
2.500000
6.437500
8.671875
10.359375
7.203125
0.000000
0.000000
0.000000
0.296875
5.843750
4.343750
2.718750
1.515625
1.703125
1.718750
1.906250
1.953125
2.218750
2.234375
2.250000
2.265625
2.578125
2.500000
2.718750
2.859375
2.890625
2.750000
3.781250
4.843750
5.390625
5.953125
6.187500
5.468750
4.312500
2.953125
2.546875
3.000000
3.218750
3.406250
3.390625
3.578125
3.187500
5.328125
8.031250
10.156250
11.031250
1.359375
1.156250
2.187500
2.812500
3.031250
3.015625
3.031250
3.109375
3.031250
3.015625
3.140625
3.187500
3.187500
3.281250
3.453125
3.468750
3.484375
3.375000
3.343750
3.484375
3.515625
3.546875
3.625000
3.578125
3.609375
3.859375
3.906250
3.968750
4.296875
4.296875
4.265625
4.125000
3.968750
2.937500
2.531250
3.531250
1.484375
0.000000
0.000000
0.000000
0.000000
0.000000
0.000000
0.656250
3.078125
3.343750
3.515625
3.515625
3.671875
3.765625
4.046875
4.109375
4.281250
4.312500
4.328125
4.265625
4.593750
4.671875
4.906250
5.265625
5.250000
6.046875
7.093750
7.578125
7.296875
7.109375
6.937500
6.453125
5.343750
5.218750
5.593750
5.718750
5.687500
5.625000
5.500000
5.015625
4.984375
6.531250
5.062500
4.203125
3.125000
2.421875
0.546875
0.421875
0.578125
0.625000
0.625000
0.656250
0.593750
0.546875
0.546875
0.531250
0.546875
0.593750
0.734375
0.734375
0.718750
0.578125
0.531250
0.531250
0.531250
0.546875
0.531250
0.500000
0.453125
0.640625
0.703125
0.765625
1.015625
1.015625
1.000000
0.890625
0.656250
0.000000
0.046875
2.500000
2.703125
0.281250
2.156250
6.593750
5.859375
8.109375
6.890625
2.343750
0.171875
0.000000
0.000000
0.000000
0.000000
0.000000
0.000000
0.000000
0.000000
0.000000
0.000000
0.000000
0.000000
0.000000
0.000000
0.000000
0.000000
0.437500
1.296875
1.718750
1.531250
1.609375
1.640625
1.359375
0.656250
0.718750
1.000000
1.093750
1.046875
1.015625
0.984375
0.312500
1.796875
3.875000
4.375000
4.843750
0.578125
0.046875
0.000000
0.000000
0.218750
0.109375
0.203125
0.187500
0.203125
0.171875
0.156250
0.109375
0.109375
0.109375
0.234375
0.281250
0.312500
0.187500
0.125000
0.093750
0.093750
0.093750
0.156250
0.093750
0.062500
0.046875
0.187500
0.250000
0.515625
0.468750
0.421875
0.296875
0.203125
0.000000
0.000000
2.593750
3.390625
0.703125
2.406250
2.656250
4.000000
5.375000
5.562500
2.796875
1.312500
0.062500
0.000000
0.000000
0.000000
0.000000
0.000000
0.000000
0.000000
0.000000
0.000000
0.000000
0.000000
0.000000
0.000000
0.000000
0.000000
0.171875
1.171875
1.687500
1.546875
1.718750
1.593750
1.140625
0.109375
0.093750
0.406250
0.609375
0.687500
0.625000
0.671875
0.078125
0.546875
4.296875
4.437500
4.453125
0.000000
0.000000
0.000000
0.000000
0.093750
0.375000
0.281250
0.546875
0.515625
0.265625
0.453125
0.296875
0.281250
0.593750
0.593750
0.437500
0.500000
0.421875
0.218750
0.375000
0.312500
0.250000
0.437500
0.546875
0.234375
0.421875
0.140625
0.078125
0.546875
0.500000
0.468750
0.515625
0.328125
0.000000
0.000000
0.000000
0.000000
0.000000
0.000000
0.000000
0.000000
0.000000
0.000000
0.000000
0.000000
0.000000
0.000000
0.000000
0.000000
0.000000
0.000000
0.000000
0.000000
0.000000
0.000000
0.000000
0.000000
0.000000
0.000000
0.000000
0.000000
0.000000
0.000000
0.000000
0.000000
0.000000
0.000000
0.000000
0.000000
0.250000
0.578125
0.031250
0.000000
0.000000
0.000000
0.000000
0.000000
0.000000
0.000000
0.000000
2.921875
1.203125
2.781250
4.484375
2.796875
2.265625
2.453125
2.406250
2.343750
2.437500
2.562500
2.625000
2.765625
2.625000
2.468750
2.656250
2.687500
2.765625
2.953125
2.828125
2.812500
2.890625
2.906250
2.984375
3.125000
3.062500
3.234375
3.187500
3.031250
3.281250
3.296875
3.078125
3.250000
3.406250
3.015625
1.828125
0.796875
1.968750
9.218750
10.343750
6.390625
0.000000
0.000000
0.078125
7.625000
4.828125
3.953125
3.796875
3.937500
4.390625
5.062500
4.828125
4.812500
4.671875
4.531250
4.234375
5.109375
5.375000
5.609375
6.015625
5.812500
5.359375
5.437500
6.859375
7.718750
7.890625
7.296875
5.812500
4.640625
4.125000
3.781250
4.187500
4.734375
4.546875
4.703125
4.875000
3.156250
4.203125
3.093750
0.218750
1.812500
3.234375
3.906250
7.500000
9.796875
10.171875
10.359375
10.640625
10.890625
10.953125
10.937500
11.343750
11.562500
11.859375
12.171875
12.171875
12.156250
12.343750
12.765625
12.984375
13.265625
13.406250
13.375000
13.812500
14.406250
14.390625
14.843750
14.828125
14.390625
14.875000
15.218750
15.000000
15.125000
15.203125
14.390625
12.546875
8.328125
0.000000
0.000000
0.000000
10.937500
10.546875
6.406250
2.953125
8.531250
14.437500
17.593750
18.109375
18.265625
18.562500
19.484375
20.453125
21.062500
21.781250
22.562500
22.718750
23.328125
24.093750
24.406250
25.765625
27.578125
28.062500
26.781250
24.281250
21.796875
20.578125
20.718750
21.375000
21.921875
22.265625
22.218750
22.140625
21.828125
20.843750
20.703125
22.000000
20.468750
17.937500
10.671875
1.296875
1.312500
0.000000
0.312500
0.000000
0.000000
0.000000
0.000000
0.000000
0.000000
0.000000
0.000000
0.000000
0.000000
0.000000
0.000000
0.000000
0.000000
0.000000
0.000000
0.000000
0.000000
0.000000
0.000000
0.000000
0.000000
0.000000
0.000000
0.000000
0.000000
0.000000
0.000000
0.000000
0.000000
0.000000
0.000000
0.312500
5.328125
10.625000
10.390625
4.218750
3.625000
15.046875
19.234375
11.421875
0.000000
0.000000
0.000000
0.000000
0.000000
0.000000
0.000000
0.000000
0.000000
0.000000
0.000000
0.000000
0.000000
0.000000
0.000000
0.000000
0.000000
0.000000
0.000000
0.000000
0.000000
0.000000
0.000000
0.000000
0.000000
0.000000
0.000000
0.000000
0.000000
0.000000
0.000000
0.000000
0.000000
1.078125
6.046875
9.343750
2.921875
4.968750
1.890625
0.578125
0.000000
0.078125
0.625000
0.515625
0.468750
0.546875
0.734375
0.671875
0.703125
0.734375
0.468750
0.500000
0.734375
0.984375
1.000000
1.187500
1.031250
0.796875
1.171875
1.109375
1.093750
1.484375
1.234375
0.843750
1.265625
0.781250
0.546875
1.312500
1.109375
1.484375
2.250000
2.437500
1.234375
5.218750
11.812500
18.203125
16.343750
17.656250
13.906250
8.531250
4.218750
1.468750
0.703125
2.781250
3.296875
3.718750
3.703125
3.937500
3.890625
3.953125
3.906250
4.609375
4.500000
4.750000
5.406250
5.312500
4.656250
3.812500
2.609375
1.171875
0.781250
0.718750
0.531250
1.406250
1.937500
2.000000
2.406250
2.015625
1.562500
2.562500
2.671875
1.656250
3.187500
1.140625
0.000000
1.578125
0.718750
0.765625
0.000000
0.000000
0.000000
1.203125
2.265625
2.062500
1.953125
2.281250
2.281250
2.375000
2.406250
2.343750
2.203125
2.468750
2.640625
2.484375
2.671875
2.687500
2.625000
2.718750
2.828125
2.640625
2.984375
3.093750
3.046875
3.187500
3.140625
2.859375
3.140625
3.281250
3.125000
3.593750
4.734375
3.625000
3.437500
3.781250
6.937500
2.921875
0.000000
0.656250
3.359375
6.968750
1.234375
0.000000
0.000000
3.453125
3.687500
4.156250
4.062500
4.062500
4.156250
4.390625
4.156250
4.921875
5.078125
5.343750
5.203125
5.234375
5.265625
5.218750
5.625000
6.000000
5.593750
4.265625
3.687500
3.484375
3.718750
4.437500
4.718750
4.765625
5.156250
5.218750
4.218750
4.656250
5.453125
4.484375
6.312500
4.750000
0.000000
0.000000
0.000000
0.843750
0.593750
0.500000
0.531250
0.453125
0.703125
0.890625
0.640625
0.609375
0.593750
0.562500
0.796875
1.109375
0.875000
0.640625
0.687500
0.531250
0.796875
1.203125
0.843750
0.890625
0.875000
0.609375
1.187500
1.671875
1.203125
1.390625
1.531250
0.953125
1.328125
1.109375
1.609375
6.625000
10.281250
11.812500
4.375000
1.343750
1.203125
4.515625
3.859375
6.562500
3.421875
1.765625
1.625000
2.031250
1.859375
1.828125
1.687500
1.750000
1.859375
2.515625
2.625000
2.375000
2.562500
2.625000
2.156250
2.046875
2.656250
4.093750
6.593750
8.656250
8.687500
7.078125
5.500000
3.312500
2.343750
2.312500
1.890625
2.625000
3.640625
2.468750
2.609375
2.218750
3.593750
10.453125
14.015625
13.312500
0.000000
0.000000
0.000000
0.046875
2.078125
2.468750
2.234375
2.421875
2.453125
2.609375
2.656250
2.343750
2.468750
2.468750
2.734375
2.890625
3.031250
2.906250
2.609375
2.500000
2.390625
2.703125
2.953125
3.093750
2.875000
2.875000
2.437500
2.687500
3.093750
3.328125
3.421875
3.468750
3.296875
3.250000
2.140625
0.000000
0.000000
0.000000
0.000000
0.000000
0.000000
0.000000
0.000000
0.000000
0.000000
0.000000
2.234375
2.140625
2.234375
1.937500
1.609375
1.250000
1.781250
2.140625
2.515625
2.562500
2.078125
1.453125
2.015625
2.390625
2.015625
1.781250
1.718750
2.140625
2.937500
3.734375
4.421875
4.453125
4.171875
4.140625
4.062500
3.968750
3.531250
3.859375
4.187500
4.531250
2.390625
0.000000
0.000000
0.000000
0.000000
1.718750
5.921875
5.796875
5.093750
3.468750
3.187500
3.375000
3.578125
3.250000
3.468750
3.750000
3.750000
3.656250
3.828125
3.718750
3.609375
3.843750
3.718750
3.562500
3.890625
4.218750
3.921875
4.468750
4.046875
3.718750
4.015625
4.031250
4.140625
4.546875
4.296875
3.187500
2.703125
0.359375
0.000000
0.000000
0.000000
0.000000
0.000000
0.000000
0.000000
0.000000
0.000000
3.484375
8.515625
8.921875
6.031250
3.296875
3.765625
3.765625
4.187500
4.437500
4.609375
4.328125
4.515625
3.828125
4.359375
5.000000
5.531250
5.671875
4.187500
2.062500
1.359375
1.515625
2.656250
4.046875
4.906250
5.031250
5.187500
4.953125
4.656250
4.484375
4.546875
4.234375
3.328125
0.093750
0.000000
0.000000
0.000000
0.000000
0.000000
0.000000
0.000000
0.000000
0.000000
0.000000
0.000000
0.000000
0.000000
0.000000
0.000000
0.000000
0.000000
0.000000
0.000000
0.000000
0.000000
0.000000
0.000000
0.000000
0.000000
0.000000
0.000000
0.000000
0.000000
0.000000
0.000000
0.000000
0.000000
0.000000
0.000000
0.000000
0.000000
0.000000
0.000000
0.000000
0.000000
0.000000
0.000000
0.000000
0.000000
0.000000
0.000000
0.000000
0.000000
0.000000
0.000000
0.000000
0.000000
0.000000
0.000000
0.000000
0.000000
0.000000
0.000000
0.000000
0.000000
0.000000
0.000000
0.000000
0.000000
0.000000
0.000000
0.000000
0.000000
0.000000
0.000000
0.000000
0.000000
0.000000
0.000000
0.000000
0.000000
0.000000
0.000000
0.000000
0.000000
0.000000
0.000000
0.000000
3.609375
0.203125
0.000000
0.000000
0.000000
0.000000
0.000000
0.000000
0.000000
0.000000
0.000000
0.000000
0.000000
0.000000
0.000000
0.000000
0.000000
0.000000
0.000000
0.000000
0.000000
0.000000
0.000000
0.000000
0.000000
0.000000
0.000000
0.000000
0.000000
0.000000
0.000000
0.000000
0.000000
0.000000
0.968750
3.859375
7.468750
4.843750
4.671875
14.734375
17.578125
18.281250
5.515625
0.000000
0.000000
0.000000
0.000000
0.000000
0.000000
0.000000
0.000000
0.000000
0.000000
0.000000
0.000000
0.000000
0.000000
0.000000
0.000000
0.000000
0.000000
0.000000
0.000000
0.000000
0.000000
0.000000
0.000000
0.000000
0.000000
0.000000
0.000000
0.000000
0.000000
0.000000
0.000000
0.000000
2.406250
7.250000
5.796875
5.531250
0.000000
0.000000
0.000000
0.937500
1.281250
0.421875
0.062500
0.000000
0.000000
0.000000
0.000000
0.109375
0.046875
0.000000
0.078125
0.000000
0.000000
0.000000
0.000000
0.000000
0.000000
0.000000
0.093750
0.140625
0.000000
0.000000
0.156250
0.046875
0.453125
0.890625
0.421875
0.000000
0.000000
0.000000
0.000000
0.000000
0.000000
0.000000
0.000000
0.000000
0.000000
0.000000
8.859375
19.203125
22.437500
10.640625
3.203125
0.000000
0.000000
0.000000
0.000000
0.000000
0.000000
0.000000
0.000000
0.000000
0.000000
0.000000
0.000000
0.000000
0.000000
0.171875
1.468750
3.640625
5.203125
6.109375
4.875000
3.609375
2.218750
0.828125
0.531250
0.828125
0.578125
0.359375
0.000000
0.000000
0.000000
0.515625
2.796875
8.234375
