0.593750
0.843750
2.703125
2.578125
1.468750
1.156250
1.187500
1.203125
1.156250
1.187500
1.281250
1.218750
1.187500
1.296875
1.421875
1.406250
1.375000
1.343750
1.343750
1.437500
1.437500
1.437500
1.546875
1.578125
1.671875
1.843750
1.921875
1.890625
2.312500
2.281250
2.218750
2.015625
1.937500
2.078125
2.500000
6.437500
8.671875
12.421875
9.140625
1.156250
0.000000
0.000000
0.296875
5.843750
4.343750
2.718750
1.515625
1.703125
1.718750
1.906250
1.953125
2.218750
2.234375
2.250000
2.265625
2.578125
2.500000
2.718750
2.859375
2.890625
2.750000
3.781250
4.843750
5.390625
5.953125
6.187500
5.468750
4.312500
2.953125
2.546875
3.000000
3.218750
3.406250
3.390625
3.578125
3.187500
5.328125
8.031250
10.156250
14.359375
1.531250
2.031250
2.187500
2.812500
3.031250
3.015625
3.031250
3.109375
3.031250
3.015625
3.140625
3.187500
3.187500
3.281250
3.453125
3.468750
3.484375
3.375000
3.343750
3.484375
3.515625
3.546875
3.625000
3.578125
3.609375
3.859375
3.906250
3.968750
4.296875
4.296875
4.265625
4.125000
3.968750
2.937500
2.531250
3.562500
3.796875
1.703125
1.203125
1.750000
0.000000
4.125000
2.562500
1.453125
3.078125
3.546875
3.515625
3.750000
4.046875
4.078125
4.250000
4.453125
4.781250
4.421875
4.546875
4.843750
4.734375
4.953125
5.656250
5.562500
5.312500
6.609375
7.562500
8.000000
7.937500
7.390625
7.093750
6.453125
5.343750
5.218750
5.671875
5.718750
5.750000
5.859375
5.500000
5.015625
4.984375
6.531250
8.343750
4.937500
3.859375
2.890625
2.015625
2.687500
2.546875
2.609375
2.484375
2.796875
2.640625
2.562500
2.687500
2.390625
2.718750
2.875000
2.953125
3.093750
3.046875
2.781250
2.812500
2.875000
2.921875
3.109375
3.140625
3.078125
2.984375
3.312500
3.500000
3.656250
3.968750
3.781250
3.937500
3.921875
3.484375
2.765625
3.046875
5.546875
5.015625
0.281250
2.156250
6.593750
5.859375
8.109375
6.890625
2.343750
3.578125
3.031250
3.140625
3.156250
3.187500
3.031250
3.312500
3.468750
3.718750
3.765625
3.953125
4.031250
4.000000
3.890625
4.359375
4.437500
4.562500
5.703125
6.390625
6.531250
5.921875
5.453125
5.515625
5.328125
4.703125
4.968750
5.015625
5.093750
5.156250
5.015625
4.703125
4.140625
5.828125
8.593750
7.390625
4.906250
4.015625
6.484375
6.500000
5.953125
5.765625
5.750000
6.250000
6.453125
6.625000
6.640625
6.562500
6.734375
7.046875
7.203125
7.453125
7.593750
7.562500
7.437500
7.625000
7.906250
8.296875
8.468750
8.343750
8.390625
8.609375
8.734375
9.500000
9.812500
9.671875
9.625000
9.765625
9.625000
9.437500
8.859375
9.656250
13.265625
12.312500
5.468750
4.156250
4.203125
8.906250
13.343750
18.750000
15.140625
13.015625
11.343750
11.406250
11.921875
12.234375
12.250000
12.921875
14.093750
14.484375
14.875000
15.406250
15.125000
15.531250
16.593750
17.046875
17.359375
18.296875
19.593750
20.812500
20.531250
18.687500
17.500000
16.390625
15.421875
14.203125
14.359375
14.296875
14.843750
15.093750
14.671875
14.234375
13.375000
14.218750
19.531250
17.421875
10.765625
0.000000
0.000000
0.218750
0.000000
0.093750
0.375000
0.281250
0.546875
0.515625
0.265625
0.453125
0.296875
0.281250
0.593750
0.593750
0.437500
0.500000
0.421875
0.218750
0.375000
0.312500
0.250000
0.437500
0.546875
0.234375
0.421875
0.140625
0.078125
0.546875
0.500000
0.468750
0.515625
0.328125
0.000000
0.000000
0.000000
1.406250
0.000000
0.000000
0.750000
0.000000
0.000000
0.000000
0.000000
0.000000
0.000000
0.000000
0.000000
0.000000
0.000000
0.000000
0.000000
0.000000
0.000000
0.000000
0.000000
0.000000
0.000000
0.000000
0.000000
0.000000
0.000000
0.000000
0.000000
0.000000
0.000000
0.000000
0.000000
0.000000
0.250000
0.578125
0.031250
0.000000
0.000000
0.000000
0.000000
0.000000
0.000000
1.171875
0.000000
2.921875
1.203125
2.781250
4.484375
2.796875
2.265625
2.453125
2.406250
2.343750
2.437500
2.562500
2.625000
2.765625
2.625000
2.468750
2.656250
2.687500
2.765625
2.953125
2.828125
2.812500
2.890625
2.906250
2.984375
3.125000
3.062500
3.234375
3.187500
3.031250
3.281250
3.296875
3.078125
3.250000
3.406250
3.015625
1.828125
0.796875
2.328125
10.125000
10.343750
6.390625
0.000000
0.000000
0.078125
7.625000
4.828125
3.953125
3.796875
3.937500
4.390625
5.062500
4.828125
4.812500
4.671875
4.531250
4.234375
5.109375
5.375000
5.609375
6.015625
5.812500
5.359375
5.437500
6.859375
7.718750
7.890625
7.296875
5.812500
4.640625
4.125000
3.781250
4.187500
4.734375
4.546875
4.703125
4.875000
3.156250
4.203125
3.093750
1.734375
1.937500
4.218750
4.406250
7.984375
9.906250
10.500000
10.875000
11.015625
11.359375
11.421875
11.203125
11.890625
12.140625
12.312500
12.687500
12.687500
12.531250
12.593750
13.250000
13.421875
13.750000
13.984375
13.781250
14.171875
14.890625
14.765625
15.484375
15.531250
14.687500
15.562500
15.843750
15.390625
15.671875
15.625000
14.875000
13.437500
8.328125
0.000000
0.000000
0.828125
15.500000
13.859375
7.765625
4.312500
9.046875
14.734375
18.046875
18.515625
18.640625
18.828125
20.000000
21.187500
21.625000
22.312500
23.359375
23.140625
23.781250
25.031250
24.937500
26.421875
28.640625
29.234375
27.765625
25.093750
22.093750
20.890625
21.140625
21.875000
22.718750
23.171875
22.781250
23.015625
22.765625
21.375000
21.296875
22.734375
21.250000
18.953125
10.671875
1.296875
1.312500
0.718750
0.578125
0.781250
0.656250
0.578125
0.593750
0.625000
0.718750
0.640625
0.593750
0.703125
0.625000
0.703125
0.781250
0.703125
0.687500
0.734375
0.562500
0.671875
0.828125
0.781250
0.734375
0.781250
0.609375
0.609375
0.765625
0.781250
0.781250
0.968750
0.703125
0.796875
0.875000
0.640625
0.640625
1.203125
5.453125
11.234375
10.390625
4.218750
4.125000
15.046875
19.593750
11.718750
0.468750
0.843750
0.734375
0.703125
0.718750
0.656250
0.656250
0.671875
0.734375
0.906250
0.968750
0.796875
0.937500
0.765625
0.703125
1.015625
1.000000
1.125000
1.359375
1.484375
1.296875
1.390625
1.171875
1.125000
1.218750
1.234375
1.046875
1.218750
1.109375
1.109375
1.234375
0.984375
0.734375
2.437500
6.140625
10.984375
2.921875
4.968750
1.890625
0.578125
0.000000
0.078125
0.625000
0.515625
0.468750
0.546875
0.734375
0.671875
0.703125
0.734375
0.468750
0.500000
0.734375
0.984375
1.000000
1.187500
1.031250
0.796875
1.171875
1.109375
1.093750
1.484375
1.234375
0.843750
1.265625
0.781250
0.546875
1.312500
1.109375
1.484375
2.250000
2.437500
1.234375
5.218750
11.812500
18.203125
16.343750
17.656250
13.906250
8.531250
4.218750
1.468750
0.703125
2.781250
3.296875
3.718750
3.703125
3.937500
3.890625
3.953125
3.906250
4.609375
4.500000
4.750000
5.406250
5.312500
4.656250
3.812500
2.609375
1.171875
0.781250
0.718750
0.531250
1.406250
1.937500
2.000000
2.406250
2.015625
1.562500
2.562500
2.671875
1.656250
3.187500
1.140625
0.000000
1.578125
0.890625
0.765625
0.000000
0.000000
0.000000
1.203125
2.265625
2.062500
1.953125
2.281250
2.281250
2.375000
2.406250
2.343750
2.203125
2.468750
2.640625
2.484375
2.671875
2.687500
2.625000
2.718750
2.828125
2.640625
2.984375
3.093750
3.046875
3.187500
3.140625
2.859375
3.140625
3.281250
3.125000
3.593750
4.734375
3.625000
4.984375
6.390625
7.890625
3.140625
0.000000
3.796875
3.359375
6.968750
1.234375
0.000000
0.000000
3.453125
3.687500
4.203125
4.062500
4.062500
4.156250
4.390625
4.156250
5.171875
5.078125
5.343750
5.203125
5.234375
5.265625
5.218750
5.625000
6.000000
5.750000
4.265625
3.687500
3.484375
3.718750
4.437500
4.718750
4.765625
5.156250
5.218750
4.218750
4.656250
5.453125
4.484375
8.437500
6.890625
0.000000
0.421875
0.156250
0.843750
0.593750
0.500000
0.531250
0.453125
0.703125
0.890625
0.640625
0.609375
0.593750
0.562500
0.796875
1.109375
0.875000
0.640625
0.687500
0.531250
0.796875
1.203125
0.843750
0.890625
0.875000
0.609375
1.187500
1.671875
1.203125
1.390625
1.531250
0.953125
1.328125
1.109375
1.609375
6.625000
10.281250
13.140625
6.453125
3.015625
2.484375
7.203125
6.968750
8.109375
3.421875
1.765625
1.625000
2.031250
1.859375
1.828125
1.687500
1.750000
1.859375
2.515625
2.625000
2.375000
2.562500
2.625000
2.156250
2.046875
2.656250
4.093750
6.593750
8.656250
8.687500
7.078125
5.500000
3.312500
2.343750
2.312500
1.890625
2.625000
3.640625
2.468750
2.609375
2.218750
3.593750
10.453125
14.015625
15.937500
0.000000
0.000000
0.000000
0.046875
2.156250
2.468750
2.234375
2.421875
2.453125
2.609375
2.656250
2.343750
2.468750
2.468750
2.734375
2.890625
3.031250
2.906250
2.609375
2.500000
2.390625
2.703125
2.953125
3.093750
2.875000
2.875000
2.437500
2.687500
3.093750
3.328125
3.421875
3.468750
3.296875
3.250000
2.140625
0.000000
1.703125
3.859375
1.843750
1.718750
1.093750
0.203125
0.000000
0.000000
0.000000
0.000000
2.234375
2.140625
2.234375
1.937500
1.609375
1.250000
1.781250
2.140625
2.515625
2.562500
2.078125
1.453125
2.015625
2.390625
2.015625
1.781250
1.718750
2.140625
3.015625
3.796875
4.421875
4.453125
4.171875
4.140625
4.062500
3.968750
3.531250
3.859375
4.187500
4.531250
2.390625
0.000000
2.078125
3.859375
1.046875
2.328125
6.203125
6.500000
5.671875
3.984375
4.000000
4.000000
4.203125
4.031250
4.093750
4.328125
4.562500
4.359375
4.531250
4.484375
4.359375
4.421875
4.484375
4.390625
4.593750
5.078125
4.718750
5.203125
4.875000
4.546875
4.750000
5.046875
4.875000
5.218750
5.343750
4.000000
3.437500
1.187500
0.781250
1.156250
0.843750
0.000000
0.000000
0.156250
1.453125
2.781250
0.000000
3.484375
9.343750
9.765625
6.953125
4.437500
4.765625
4.640625
5.265625
5.625000
5.796875
5.359375
5.812500
5.093750
5.453125
6.421875
6.968750
6.765625
5.718750
3.937500
2.781250
2.812500
3.687500
4.703125
5.890625
6.046875
6.453125
6.359375
5.875000
5.609375
6.000000
5.328125
4.218750
1.250000
1.218750
1.812500
1.296875
0.000000
1.234375
2.250000
0.921875
0.656250
0.625000
0.734375
1.078125
0.812500
0.921875
1.031250
0.890625
1.062500
1.140625
1.015625
1.031250
1.046875
1.000000
0.984375
1.218750
1.187500
1.156250
1.218750
1.031250
1.093750
1.250000
1.093750
1.218750
1.234375
0.921875
1.062500
1.234375
1.062500
1.125000
1.234375
1.156250
1.843750
1.265625
0.000000
1.906250
4.156250
6.906250
6.078125
4.343750
3.171875
1.640625
1.578125
1.781250
1.968750
2.046875
1.937500
2.203125
2.390625
2.109375
2.015625
2.359375
2.218750
2.359375
2.812500
2.531250
2.375000
2.875000
2.750000
2.515625
2.359375
2.156250
1.984375
2.046875
1.796875
1.843750
1.828125
1.578125
1.765625
1.953125
1.578125
1.640625
1.796875
1.578125
2.703125
1.421875
0.000000
3.921875
0.203125
0.000000
0.000000
0.000000
0.000000
0.000000
0.000000
0.000000
0.000000
0.000000
0.000000
0.000000
0.000000
0.000000
0.000000
0.000000
0.000000
0.000000
0.000000
0.000000
0.000000
0.000000
0.000000
0.000000
0.000000
0.000000
0.000000
0.000000
0.000000
0.000000
0.000000
0.000000
0.000000
0.968750
3.859375
7.468750
4.843750
5.468750
19.750000
22.640625
24.015625
5.515625
0.000000
0.000000
0.000000
0.000000
0.000000
0.000000
0.000000
0.000000
0.000000
0.000000
0.000000
0.000000
0.000000
0.000000
0.000000
0.000000
0.000000
0.000000
0.000000
0.000000
0.000000
0.000000
0.000000
0.000000
0.000000
0.000000
0.000000
0.000000
0.000000
0.000000
0.000000
0.000000
0.000000
2.406250
7.250000
5.796875
5.531250
1.625000
0.000000
0.000000
0.937500
1.281250
0.421875
0.062500
0.000000
0.000000
0.000000
0.000000
0.109375
0.046875
0.000000
0.078125
0.000000
0.000000
0.000000
0.000000
0.000000
0.000000
0.000000
0.093750
0.140625
0.000000
0.000000
0.156250
0.046875
0.453125
0.890625
0.421875
0.000000
0.000000
0.000000
0.000000
0.000000
0.000000
0.000000
0.000000
2.328125
4.281250
4.093750
8.859375
19.203125
22.437500
10.640625
3.203125
0.000000
0.000000
0.000000
0.000000
0.000000
0.000000
0.000000
0.000000
0.000000
0.000000
0.000000
0.000000
0.000000
0.000000
0.171875
1.468750
3.640625
5.203125
6.109375
4.875000
3.609375
2.218750
0.828125
0.531250
0.828125
0.578125
0.359375
0.000000
0.000000
0.000000
0.515625
2.796875
8.234375
