0.000000
0.000000
1.093750
1.375000
1.578125
1.703125
1.703125
1.703125
1.703125
1.796875
2.000000
2.109375
2.109375
2.187500
2.640625
5.500000
10.312500
10.312500
10.312500
0.000000
0.000000
0.000000
0.000000
0.000000
0.812500
0.812500
0.812500
1.187500
3.734375
5.750000
5.750000
5.750000
5.640625
4.203125
3.531250
5.125000
8.281250
18.046875
18.640625
18.640625
0.000000
1.640625
1.796875
2.078125
2.468750
2.531250
2.531250
2.531250
2.734375
2.937500
3.421875
3.609375
3.968750
4.640625
4.796875
6.484375
6.484375
6.484375
5.000000
0.000000
0.000000
0.000000
5.937500
5.937500
5.937500
5.218750
5.218750
5.625000
9.468750
15.671875
19.656250
19.656250
19.656250
17.421875
17.421875
10.578125
9.828125
14.843750
14.843750
14.843750
6.937500
6.937500
6.937500
3.781250
2.062500
1.437500
1.437500
1.906250
1.906250
1.984375
1.984375
1.984375
2.234375
2.234375
2.234375
6.046875
8.671875
8.671875
11.000000
15.203125
16.828125
19.484375
19.484375
19.484375
9.906250
5.375000
5.437500
5.468750
7.609375
14.703125
14.703125
14.703125
12.671875
12.546875
10.890625
6.093750
10.500000
15.000000
15.000000
15.000000
0.000000
0.000000
0.000000
0.000000
0.000000
0.000000
0.000000
0.000000
0.000000
0.000000
0.000000
0.000000
0.000000
0.000000
0.000000
0.000000
0.000000
1.000000
3.234375
5.484375
5.484375
5.484375
5.312500
5.312500
0.000000
0.000000
0.000000
0.000000
0.000000
0.000000
0.000000
0.000000
0.000000
0.000000
0.000000
0.000000
0.000000
0.000000
0.000000
0.000000
0.000000
0.000000
0.000000
0.000000
0.000000
0.000000
0.000000
0.000000
0.000000
0.000000
0.000000
0.000000
0.000000
0.000000
0.000000
0.000000
0.000000
0.000000
0.000000
0.000000
0.000000
0.000000
0.000000
0.000000
0.000000
0.000000
0.000000
0.000000
0.000000
0.000000
0.000000
0.000000
0.000000
0.000000
0.000000
0.000000
0.000000
0.000000
0.000000
0.000000
0.000000
1.125000
2.890625
3.546875
3.734375
4.000000
4.296875
4.296875
4.296875
3.968750
4.187500
4.359375
4.812500
5.109375
5.453125
5.453125
7.484375
7.484375
7.484375
6.265625
6.265625
3.218750
1.031250
1.031250
1.031250
1.437500
1.468750
2.203125
2.656250
5.953125
7.625000
7.890625
9.656250
9.656250
9.656250
7.156250
7.156250
14.031250
14.031250
14.031250
8.281250
8.281250
8.281250
8.125000
7.546875
7.968750
7.968750
8.250000
8.703125
9.109375
9.187500
10.031250
10.406250
10.406250
10.406250
11.890625
11.890625
11.890625
8.750000
0.000000
0.000000
8.015625
10.671875
13.593750
14.640625
15.078125
15.593750
17.281250
19.843750
21.921875
21.921875
21.921875
18.296875
15.125000
14.531250
14.656250
17.375000
18.468750
18.468750
18.468750
4.546875
4.546875
4.109375
2.625000
2.734375
2.890625
2.890625
2.968750
3.234375
3.265625
3.656250
4.390625
4.390625
4.437500
4.875000
7.796875
7.796875
7.796875
11.218750
16.890625
18.140625
18.140625
18.140625
14.781250
7.859375
7.125000
7.484375
8.062500
10.875000
11.250000
11.250000
11.843750
11.843750
11.843750
8.843750
8.031250
10.875000
10.875000
11.031250
11.031250
0.000000
0.000000
0.000000
0.000000
0.000000
0.000000
0.000000
0.000000
0.000000
0.000000
0.000000
0.000000
0.000000
0.000000
0.000000
0.000000
0.000000
0.000000
0.000000
19.546875
19.546875
19.546875
9.312500
3.765625
0.390625
0.000000
0.000000
0.000000
0.000000
0.000000
0.000000
0.000000
0.000000
0.000000
0.000000
0.000000
0.000000
0.000000
0.000000
0.000000
1.218750
1.218750
0.359375
0.000000
0.000000
0.000000
0.000000
0.000000
0.000000
0.000000
0.000000
0.000000
0.000000
0.000000
0.000000
0.578125
6.171875
7.890625
35.296875
35.296875
35.296875
26.718750
14.359375
14.359375
10.171875
4.515625
2.828125
3.250000
3.250000
3.250000
4.000000
9.968750
9.968750
9.968750
9.375000
1.890625
2.406250
2.406250
2.406250
0.578125
0.812500
5.687500
9.390625
10.171875
10.656250
10.656250
11.750000
11.906250
11.906250
11.906250
12.109375
12.125000
13.921875
15.656250
15.656250
15.656250
18.562500
18.562500
18.562500
10.421875
0.000000
0.000000
0.000000
4.578125
4.578125
4.765625
7.390625
7.390625
7.390625
7.234375
6.703125
16.312500
21.703125
21.703125
21.703125
21.375000
19.203125
25.000000
29.531250
29.531250
0.171875
0.171875
0.875000
1.312500
2.187500
2.187500
2.187500
2.609375
2.609375
2.609375
2.359375
3.562500
3.562500
3.828125
5.015625
10.140625
16.421875
16.421875
24.796875
24.796875
24.796875
6.625000
0.000000
0.000000
1.046875
1.046875
1.046875
2.640625
5.968750
8.687500
13.843750
13.843750
13.843750
6.453125
6.171875
8.343750
14.140625
16.984375
16.984375
16.984375
4.093750
4.093750
4.093750
3.015625
2.750000
2.890625
2.890625
2.890625
2.859375
2.718750
3.031250
3.578125
3.640625
3.703125
5.187500
12.093750
24.078125
24.078125
32.015625
32.015625
32.015625
13.281250
9.015625
5.562500
1.375000
2.828125
2.828125
2.828125
4.750000
9.375000
9.375000
9.375000
5.921875
3.781250
5.406250
7.359375
17.468750
18.156250
18.156250
18.156250
0.468750
1.171875
1.171875
1.203125
1.203125
1.203125
1.328125
1.328125
1.328125
1.406250
1.406250
1.406250
0.296875
0.000000
0.000000
0.000000
0.000000
0.390625
0.390625
0.390625
0.000000
0.000000
0.000000
0.234375
0.234375
0.234375
0.781250
0.781250
0.781250
0.187500
0.000000
0.000000
0.000000
0.000000
0.000000
0.000000
0.000000
0.000000
18.187500
18.187500
0.000000
0.000000
0.000000
0.015625
0.015625
0.015625
0.531250
0.531250
0.531250
0.281250
0.000000
0.000000
0.000000
0.000000
0.640625
0.640625
0.640625
9.468750
9.468750
9.468750
0.000000
0.000000
0.000000
0.000000
0.000000
0.000000
3.187500
3.187500
3.187500
9.437500
11.218750
11.218750
11.218750
0.000000
0.421875
0.421875
0.421875
0.000000
0.000000
0.000000
0.000000
0.000000
0.000000
0.000000
0.000000
0.000000
0.000000
0.000000
0.000000
0.000000
0.000000
0.000000
0.000000
0.000000
0.000000
0.000000
0.000000
0.000000
0.000000
0.000000
0.000000
0.000000
0.703125
0.703125
0.703125
0.000000
0.000000
0.000000
0.171875
0.937500
0.937500
0.937500
0.000000
0.000000
0.000000
0.000000
0.000000
0.000000
0.000000
0.000000
3.093750
3.093750
3.093750
1.656250
1.687500
2.734375
2.734375
2.734375
2.750000
2.750000
2.750000
2.734375
2.843750
4.390625
13.062500
21.578125
23.500000
23.500000
23.500000
21.531250
21.531250
21.531250
14.921875
14.921875
14.921875
4.703125
4.703125
6.437500
17.046875
17.046875
17.046875
12.140625
0.000000
4.656250
8.343750
20.750000
20.750000
20.750000
17.500000
1.171875
3.250000
3.656250
3.656250
3.656250
1.640625
1.515625
1.515625
1.515625
1.296875
1.906250
2.765625
2.765625
2.765625
2.234375
9.328125
20.093750
20.093750
20.093750
7.406250
4.000000
4.000000
4.718750
9.640625
9.640625
9.640625
5.171875
5.171875
5.953125
13.093750
13.093750
13.093750
6.453125
2.078125
2.671875
2.671875
13.765625
16.437500
16.437500
16.437500
0.000000
0.000000
0.000000
0.000000
0.000000
0.000000
0.000000
0.000000
0.000000
0.000000
0.000000
0.000000
0.000000
0.000000
0.000000
0.000000
0.000000
0.203125
19.640625
19.640625
19.640625
11.468750
11.468750
0.000000
0.000000
0.000000
0.000000
0.000000
0.000000
0.000000
0.000000
0.000000
0.000000
0.000000
0.000000
0.000000
0.000000
0.000000
0.000000
0.000000
0.000000
5.843750
5.843750
5.843750
2.828125
0.000000
0.000000
0.000000
0.000000
0.000000
0.000000
0.000000
0.000000
0.000000
0.000000
0.000000
0.390625
0.390625
0.390625
0.000000
0.000000
18.328125
18.328125
18.328125
3.890625
3.890625
3.890625
0.453125
0.109375
0.109375
3.328125
6.968750
6.968750
6.968750
0.000000
0.000000
0.000000
0.000000
0.000000
0.000000
0.000000
1.968750
3.421875
3.421875
3.421875
1.437500
1.046875
1.312500
1.312500
1.312500
1.593750
1.796875
1.796875
2.578125
2.671875
8.390625
15.546875
19.453125
38.078125
38.078125
38.078125
14.843750
14.843750
11.765625
7.843750
7.843750
5.906250
5.906250
7.765625
13.296875
15.953125
15.953125
15.953125
11.625000
6.906250
6.906250
13.718750
13.718750
13.718750
12.640625
11.734375
0.000000
0.000000
0.000000
0.062500
0.062500
0.062500
0.046875
0.250000
0.250000
0.250000
0.218750
0.140625
0.000000
1.140625
1.140625
1.140625
16.906250
16.906250
16.906250
15.281250
15.281250
15.281250
14.468750
14.468750
8.781250
8.781250
5.750000
5.750000
5.906250
7.921875
7.921875
7.921875
9.937500
9.937500
9.937500
9.156250
5.578125
15.234375
15.234375
15.234375
2.062500
4.156250
7.343750
9.015625
9.500000
10.250000
10.515625
10.640625
10.843750
10.843750
10.843750
11.234375
12.156250
12.156250
12.156250
11.875000
7.687500
5.984375
4.156250
0.000000
0.000000
0.000000
0.000000
0.000000
1.906250
3.343750
3.546875
3.546875
3.546875
0.406250
2.390625
9.484375
12.000000
13.812500
13.937500
13.937500
17.593750
25.781250
27.250000
27.250000
0.000000
0.000000
0.000000
0.000000
0.000000
0.000000
0.000000
0.000000
0.000000
0.000000
0.000000
0.000000
0.000000
0.000000
0.000000
0.000000
0.000000
0.000000
0.000000
0.000000
0.000000
0.000000
0.000000
0.000000
0.000000
0.000000
0.000000
0.000000
0.000000
0.000000
0.000000
0.000000
0.000000
0.000000
0.000000
0.000000
0.000000
3.265625
11.625000
11.625000
2.796875
2.796875
1.781250
2.609375
4.656250
4.656250
4.859375
4.859375
5.609375
7.218750
7.218750
7.218750
6.640625
7.921875
11.843750
11.843750
11.843750
0.000000
0.000000
6.609375
11.000000
11.000000
12.312500
12.312500
12.312500
2.875000
3.203125
7.453125
7.453125
7.453125
7.328125
0.000000
0.000000
5.421875
8.250000
8.562500
8.562500
8.562500
0.000000
0.000000
0.390625
0.390625
0.390625
0.000000
0.000000
0.000000
0.000000
0.000000
0.000000
0.000000
0.000000
0.000000
0.000000
0.000000
0.000000
23.234375
23.234375
28.281250
28.281250
28.281250
22.312500
11.265625
11.265625
0.000000
0.000000
0.109375
0.109375
4.578125
11.750000
11.750000
11.750000
7.515625
0.000000
0.000000
0.000000
3.281250
20.062500
20.062500
20.062500
7.906250
0.000000
0.000000
0.000000
0.000000
0.000000
0.000000
0.000000
0.000000
0.000000
0.000000
0.000000
0.000000
0.000000
0.000000
0.000000
13.859375
22.625000
28.375000
28.375000
28.375000
26.031250
16.953125
16.953125
0.031250
0.031250
0.031250
0.000000
0.000000
7.843750
7.843750
7.843750
0.000000
0.000000
0.000000
0.000000
0.000000
0.000000
0.000000
8.671875
8.671875
0.765625
0.765625
0.000000
0.000000
0.000000
0.000000
0.000000
0.000000
0.000000
0.000000
0.000000
0.000000
0.000000
0.000000
0.000000
0.000000
0.000000
0.000000
0.000000
0.515625
0.515625
0.515625
0.000000
0.000000
0.000000
0.000000
0.000000
0.000000
0.000000
0.000000
0.000000
0.000000
0.000000
0.000000
0.000000
0.000000
0.000000
0.000000
0.000000
0.000000
3.781250
3.828125
7.078125
7.078125
7.078125
6.875000
6.875000
6.515625
6.515625
6.937500
8.171875
8.171875
8.171875
7.937500
19.093750
22.656250
22.656250
22.656250
27.640625
27.640625
27.640625
26.234375
37.265625
37.265625
37.265625
27.875000
10.859375
8.140625
12.140625
12.140625
12.140625
13.859375
29.531250
34.093750
34.093750
35.218750
35.218750
35.218750
31.296875
14.609375
7.515625
8.468750
8.468750
8.468750
7.265625
3.281250
0.000000
0.000000
0.000000
0.000000
0.000000
0.234375
0.234375
0.234375
0.000000
0.000000
0.000000
0.000000
0.000000
4.500000
4.500000
29.421875
29.421875
29.421875
27.125000
8.421875
8.421875
1.515625
1.515625
0.000000
0.000000
0.000000
0.000000
0.000000
0.000000
0.000000
0.000000
0.000000
0.000000
0.000000
4.656250
5.828125
5.828125
11.718750
14.843750
16.187500
17.609375
17.609375
18.015625
20.375000
20.375000
20.375000
22.265625
29.890625
37.609375
45.843750
52.578125
52.578125
53.062500
53.062500
53.062500
20.718750
0.468750
0.000000
0.000000
12.453125
17.281250
17.281250
20.312500
22.125000
22.125000
23.250000
28.406250
30.609375
38.000000
38.000000
40.921875
40.921875
40.921875
26.390625
1.359375
5.578125
6.562500
6.562500
6.562500
2.546875
2.546875
1.906250
1.906250
1.906250
1.750000
2.359375
2.359375
2.359375
0.890625
2.468750
2.468750
2.468750
17.468750
17.468750
27.484375
47.109375
47.109375
47.109375
30.609375
17.093750
13.390625
4.796875
1.937500
2.687500
6.921875
6.921875
6.921875
8.953125
8.953125
8.953125
10.640625
10.640625
10.640625
9.000000
